# WAIS Divide lock-in depth from firn densification model calibrated to fit d15N data
# See Buizert et al. 2015 for details. File generated 8/19/2015
#Depth(m) LID(m)
0.7670	NaN
5.1353	NaN
9.2931	NaN
12.9988	NaN
16.3021	NaN
19.5273	NaN
22.8421	NaN
26.0581	NaN
29.0693	NaN
32.1020	NaN
34.7373	NaN
37.9141	NaN
40.7068	NaN
43.8041	NaN
46.3056	NaN
48.7266	NaN
51.4473	NaN
54.0194	NaN
56.6932	NaN
59.3464	NaN
61.7660	NaN
64.2010	NaN
66.7638	65.4646
69.2542	65.5040
71.7860	65.5718
74.1396	65.6783
76.4448	65.8038
78.7478	65.8832
81.1135	65.9336
83.4472	65.9724
85.6884	66.0309
88.0213	66.1074
90.3369	66.1258
92.5157	66.1170
94.7678	66.0031
97.2353	65.9815
99.9314	66.0056
102.2528	66.0675
104.5935	66.0430
106.9726	65.9547
109.3308	65.9045
111.6648	65.9014
114.2352	65.9166
116.3718	65.9148
118.8484	65.8234
121.0833	65.7628
123.5001	65.8601
125.9472	66.0155
128.1588	66.1789
130.4398	66.3231
132.5711	66.4213
134.7800	66.5837
137.3982	66.7909
139.5767	67.0635
141.7800	67.3271
144.0208	67.5028
146.0809	67.5147
148.4093	67.4549
150.7057	67.3785
153.0645	67.3550
155.4639	67.3657
157.9148	67.3481
160.1882	67.2668
162.3599	67.2449
164.7780	67.2016
166.9093	67.2299
169.2090	67.2198
171.4278	67.1576
173.6696	67.1104
175.9378	67.1199
178.3042	67.2259
180.6608	67.3624
182.8535	67.3525
185.0383	67.3717
187.3195	67.3442
189.6718	67.4277
191.9804	67.6217
194.3217	67.7787
196.6193	67.8924
198.9716	67.9475
201.5099	67.8600
203.7638	67.6659
206.1380	67.5695
208.3589	67.5191
210.5471	67.5578
212.8776	67.6010
215.3173	67.6277
217.5822	67.7249
220.1424	67.8634
222.4837	67.9345
224.5844	67.9437
226.9366	67.9375
229.0482	67.9611
231.4443	68.0862
233.7529	68.2632
236.2475	68.3740
238.6654	68.3721
241.2911	68.3663
243.6544	68.3626
245.9300	68.3290
248.4793	68.2932
250.9191	68.1905
253.2058	68.2195
255.6237	68.3310
258.0635	68.4623
260.4378	68.5310
262.9541	68.4838
265.5580	68.3844
268.0198	68.3751
270.4159	68.4463
272.6696	68.6714
275.1314	68.9449
277.5494	69.1379
280.1533	69.2714
282.4399	69.2639
284.8469	69.1711
287.0788	69.0747
289.4531	69.0762
291.8491	69.0705
294.1029	69.0605
296.3349	69.0470
298.7638	68.9924
301.0614	69.0237
303.4574	69.0258
305.8753	68.9991
308.3371	68.9061
310.7113	68.6746
313.0964	68.4322
315.5690	68.2422
318.1074	68.2214
320.4597	68.1830
323.0635	68.0821
325.3283	67.8987
327.8994	67.7517
330.2956	67.7441
332.5275	67.7990
335.0876	67.9083
337.5056	68.0027
339.9564	68.1532
342.2868	68.2746
344.7594	68.4301
347.0898	68.5648
349.4640	68.6627
351.7069	68.7392
353.9060	68.7582
356.4224	68.7753
358.8951	68.7317
361.3896	68.6847
363.7967	68.6013
366.3349	68.5060
368.5996	68.4842
370.9847	68.4466
373.5012	68.4472
375.6784	68.4641
377.9213	68.4363
380.1642	68.4378
382.5056	68.4157
384.7703	68.3976
387.4071	68.3810
389.7484	68.3588
392.0460	68.3241
394.5187	68.3458
396.7725	68.5203
399.2452	68.6743
401.5865	68.7637
403.9388	68.7321
406.2036	68.6087
408.7747	68.4811
410.8753	68.4467
413.2714	68.4295
415.3283	68.3965
417.6478	68.4051
419.8032	68.4809
421.8818	68.5594
424.1576	68.7447
426.1162	68.8745
428.3152	68.9432
430.5580	68.8460
433.1183	68.7344
435.5909	68.4736
438.0854	68.3793
440.2407	68.2962
442.4836	68.1521
444.6609	68.0702
447.0679	67.9409
449.3655	67.7644
451.5865	67.6008
453.7419	67.4580
455.9410	67.3383
458.1511	67.3560
460.4705	67.3609
463.0417	67.4998
465.4705	67.6339
467.7572	67.9192
469.9455	68.1639
472.2321	68.4186
474.5953	68.5595
476.8600	68.4911
479.3983	68.2368
481.6084	68.0349
483.7747	67.9148
485.9739	67.9702
488.1182	68.0363
490.3502	68.0595
492.7681	68.0786
495.0548	68.1309
497.3742	68.3002
499.8032	68.5143
502.2102	68.6956
504.4421	68.7201
506.8381	68.6235
509.1248	68.4787
511.3130	68.4070
513.4793	68.4665
515.7879	68.5209
518.0088	68.5615
520.4924	68.4634
522.7681	68.3853
524.8906	68.3602
527.2320	68.4414
529.2889	68.6081
531.5756	68.7967
533.9388	68.8596
536.2802	68.8827
538.6762	68.8516
541.0394	68.7164
543.7637	68.5846
546.0942	68.4257
548.5558	68.3372
550.9301	68.3255
553.1292	68.3842
555.6018	68.5322
558.0964	68.7616
560.7003	68.8701
563.0526	68.9008
565.4378	68.9375
567.5821	69.0655
569.7921	69.2894
572.1554	69.6046
574.5373	69.9107
576.9280	70.1266
579.3947	70.2668
581.6585	70.3352
583.8966	70.2880
586.0589	70.1657
588.5113	70.0505
590.8781	69.8845
593.3333	69.8974
595.5240	69.9758
597.9850	69.9961
600.2362	69.9913
602.4309	69.8096
604.5004	69.6278
606.8606	69.4808
609.3220	69.4526
611.5130	69.5881
613.9121	69.7621
616.0892	69.8140
618.3580	69.7300
620.5551	69.5683
622.9810	69.4618
625.3130	69.4306
627.6085	69.4982
629.8794	69.5346
632.0895	69.5301
634.7229	69.4039
636.9982	69.3168
639.1832	69.2102
641.4537	69.1608
643.8625	69.2178
645.9767	69.4085
648.1580	69.5986
650.4595	69.6596
652.7955	69.6571
654.9910	69.5528
657.1736	69.5309
659.4416	69.6044
661.8057	69.7043
663.9096	69.7922
666.1452	69.7923
668.1539	69.7421
670.3089	69.6961
672.4963	69.7684
674.6372	69.7310
676.7624	69.6489
678.9701	69.4860
681.0630	69.2979
683.2405	69.2024
685.2790	69.1464
687.6338	69.0934
689.7565	69.0982
691.6591	69.0625
693.8135	69.0127
696.0137	68.9375
698.2646	68.8728
700.1913	68.7827
702.1913	68.6014
704.3362	68.4332
706.5543	68.3412
708.6119	68.3660
710.6670	68.4076
712.8383	68.4369
715.0132	68.4025
717.1017	68.3973
719.4055	68.3529
721.4273	68.3341
723.5984	68.3287
725.7037	68.3376
727.7928	68.2727
729.8690	68.2396
731.8727	68.2199
733.9653	68.2017
735.9875	68.2250
738.1706	68.1414
740.3087	68.1618
742.4687	68.2304
744.4097	68.3197
746.3503	68.3783
748.4980	68.3769
750.7511	68.3591
753.0469	68.3668
755.1850	68.3161
757.2240	68.2364
759.1875	68.1348
761.2956	68.0133
763.5442	67.9209
765.6168	67.8823
767.6360	67.8856
769.8056	67.9183
771.9990	67.9418
774.0526	68.0260
776.2145	68.1002
778.4290	68.1437
780.6076	68.1132
782.8259	68.1194
785.0672	68.2484
787.3065	68.4705
789.5271	68.5818
791.7653	68.5122
793.7772	68.4138
795.7958	68.3535
797.7885	68.4361
799.9606	68.6042
802.0380	68.6876
804.1182	68.7364
806.1270	68.7393
808.3406	68.7827
810.4897	68.8280
812.6959	68.8820
814.6972	68.9069
816.8559	68.9008
818.8721	68.8955
821.0384	68.7902
823.2500	68.6804
825.3721	68.4900
827.4470	68.1901
829.6094	67.9578
831.7294	67.8059
833.6874	67.8398
835.7949	67.9559
838.0360	68.0504
840.2613	68.1011
842.5437	68.1476
844.6873	68.2194
846.9161	68.2668
849.1117	68.2966
851.0543	68.2417
853.2028	68.2437
855.3829	68.3002
857.4730	68.3902
859.6758	68.4134
861.9171	68.4307
863.9392	68.4261
866.0864	68.4119
868.2673	68.4060
870.3757	68.4544
872.4981	68.5795
874.5670	68.7025
876.4582	68.7909
878.7157	68.7515
880.7406	68.5931
882.6808	68.4669
884.6814	68.3295
886.8228	68.2460
888.8848	68.2201
890.9193	68.1928
893.2283	68.1950
895.4280	68.1780
897.5273	68.1213
899.6634	68.0450
901.9132	67.9819
904.0098	67.9035
905.9500	67.8420
908.0483	67.7617
910.1506	67.6740
912.4023	67.6987
914.5058	67.7733
916.5444	67.8140
918.6898	67.9089
920.7475	67.9907
922.5174	68.1517
924.5489	68.2865
926.5918	68.4388
928.5733	68.5314
930.7805	68.4970
932.7868	68.3605
934.8838	68.2048
936.8946	68.0369
938.8822	67.9272
940.8967	67.8343
943.0587	67.7912
945.0405	67.8097
947.0038	67.8599
948.9205	67.8096
951.0312	67.6911
952.8951	67.5740
954.9945	67.4311
957.0845	67.3769
959.0827	67.4337
960.9915	67.5692
962.7821	67.7404
964.8362	67.8559
966.7038	67.8323
968.7757	67.7638
970.9134	67.6541
972.9662	67.5323
975.1930	67.5030
977.1058	67.4980
979.1204	67.4395
981.1331	67.3809
983.1246	67.3612
985.1903	67.4168
987.3057	67.4886
989.2471	67.5680
991.0181	67.5273
992.8448	67.4846
994.8317	67.4115
996.9679	67.3921
998.9444	67.5514
1000.7128	67.6845
1002.6706	67.9003
1004.5619	68.0236
1006.3728	68.0067
1008.2750	67.9273
1010.4270	67.7023
1012.4497	67.5216
1014.4347	67.4533
1016.2371	67.3930
1018.2458	67.3778
1020.3612	67.2964
1022.3916	67.1252
1024.3481	66.9866
1025.9984	66.9903
1027.8097	67.1449
1029.7016	67.3281
1031.5681	67.4288
1033.3053	67.3461
1035.1959	67.2769
1037.0382	67.2124
1039.0784	67.3012
1040.8988	67.4431
1042.8198	67.5631
1044.6583	67.6144
1046.4706	67.5713
1048.3934	67.3962
1050.2632	67.2807
1052.2722	67.2232
1054.0885	67.1653
1056.0408	66.9772
1057.7776	66.6300
1059.8424	66.4728
1061.6521	66.5060
1063.4396	66.6760
1065.3009	66.8343
1067.1619	66.9548
1069.0704	67.0818
1070.8451	67.2265
1072.7865	67.2551
1074.7135	67.1890
1076.5621	67.0963
1078.3998	67.0490
1080.3588	67.1157
1082.1441	67.1366
1083.9309	67.1940
1085.6611	67.1786
1087.4706	67.1740
1089.3364	67.1309
1091.2179	67.0875
1093.0146	67.0067
1094.7583	66.9026
1096.5460	66.8998
1098.2654	66.8891
1100.1755	66.9436
1102.1008	66.9469
1103.9329	66.9580
1105.8329	66.9806
1107.5985	66.9535
1109.5577	66.8701
1111.3083	66.7708
1113.2806	66.6375
1115.1332	66.6329
1116.8702	66.6583
1118.6081	66.7988
1120.5401	66.9536
1122.3788	67.0595
1124.0829	67.1087
1125.9657	67.1127
1127.8791	67.1850
1129.6705	67.2991
1131.7906	67.5567
1133.7204	67.6962
1135.5859	67.7974
1137.3344	67.8090
1139.1291	67.8056
1141.0528	67.8576
1142.8852	67.9029
1144.8481	67.9177
1146.6462	67.8486
1148.4077	67.8105
1150.1196	67.8424
1152.0138	67.9847
1153.8762	68.0967
1155.6203	68.2155
1157.4759	68.3212
1159.4128	68.3887
1161.3779	68.4584
1163.0558	68.5002
1164.8581	68.4171
1166.5172	68.3223
1168.3531	68.1609
1170.2452	68.0581
1172.0507	68.1099
1174.0167	68.1868
1175.8904	68.1926
1177.5894	68.1092
1179.3215	68.0463
1181.0386	68.0466
1182.8448	68.1437
1184.6610	68.2932
1186.4646	68.3863
1188.3701	68.4565
1190.2946	68.4451
1192.1178	68.3889
1193.8294	68.2441
1195.5432	68.1795
1197.3199	68.1394
1199.1879	68.2606
1201.0656	68.4726
1202.9591	68.5396
1204.6173	68.5936
1206.2066	68.5058
1208.0081	68.3408
1209.7154	68.3064
1211.4463	68.2988
1213.1007	68.4048
1214.7565	68.5890
1216.5106	68.7013
1218.2758	68.7831
1220.2216	68.7371
1222.1038	68.6005
1223.6729	68.4025
1225.4761	68.2130
1227.1947	68.1482
1229.0605	68.2056
1230.7631	68.2536
1232.4676	68.1249
1234.0809	67.9172
1236.0004	67.7420
1237.6933	67.7624
1239.5509	67.8322
1241.2864	67.9289
1242.8155	68.0057
1244.5003	68.0528
1246.1653	68.1917
1247.6611	68.3894
1249.4933	68.5128
1251.2480	68.5098
1252.8823	68.3267
1254.5580	68.1856
1256.2614	68.1255
1257.8598	68.1265
1259.6711	68.1416
1261.2928	68.0660
1262.8295	67.9966
1264.3686	67.9597
1266.0065	67.9997
1267.6369	67.9543
1269.2393	67.8422
1270.8286	67.6001
1272.5156	67.3899
1274.1671	67.2996
1275.8451	67.2924
1277.4060	67.3920
1278.9546	67.5222
1280.5593	67.5313
1282.0389	67.4747
1283.6086	67.3611
1285.2294	67.1934
1286.7695	67.1012
1288.3230	67.0693
1289.7830	66.9207
1291.3825	66.7716
1292.9195	66.6450
1294.3848	66.6571
1296.0551	66.7576
1297.6740	66.8407
1299.2756	66.8534
1300.8449	66.8269
1302.2700	66.7898
1303.9010	66.7457
1305.5420	66.6052
1307.0080	66.4644
1308.6380	66.3984
1310.2350	66.3353
1311.8880	66.4096
1313.3860	66.4690
1314.9510	66.5197
1316.5260	66.5620
1317.9270	66.5865
1319.3270	66.6375
1320.8150	66.7546
1322.3800	66.8487
1323.9450	66.9626
1325.5090	66.9855
1327.0630	66.9594
1328.5610	66.9202
1330.1700	66.8087
1331.7340	66.8215
1333.3100	66.8197
1334.9620	66.7967
1336.5050	66.7888
1338.0910	66.6984
1339.7430	66.6350
1341.2750	66.4888
1342.7190	66.3360
1344.2070	66.2170
1345.8590	66.1466
1347.2700	66.2097
1348.7800	66.3534
1350.3230	66.5889
1351.7890	66.7700
1353.3650	66.8554
1354.8630	66.8975
1356.4170	66.8805
1357.8500	66.8971
1359.3600	66.9050
1361.0450	66.9109
1362.6430	66.8891
1364.2290	66.7933
1365.7060	66.6849
1367.1830	66.6138
1368.7690	66.5079
1370.2460	66.4404
1371.9530	66.4166
1373.4300	66.4317
1375.0380	66.4869
1376.4940	66.5381
1378.0470	66.5740
1379.7100	66.6777
1381.2420	66.7600
1382.8070	66.8170
1384.3270	66.9001
1385.9250	67.0233
1387.4670	67.1731
1389.1190	67.2991
1390.5310	67.3038
1392.1170	67.2274
1393.7480	67.1053
1395.2900	67.1690
1396.7010	67.2948
1398.2990	67.4308
1399.7650	67.5292
1401.3080	67.4960
1402.8730	67.4762
1404.4150	67.4334
1405.8700	67.4970
1407.3580	67.5442
1408.8020	67.5942
1410.3060	67.5885
1411.8110	67.5225
1413.3100	67.5105
1414.8300	67.4609
1416.3620	67.4353
1417.8180	67.3672
1419.3380	67.3800
1420.7820	67.3395
1422.2810	67.3156
1423.8460	67.2170
1425.1040	67.1919
1426.6910	67.1625
1428.1570	67.2415
1429.6660	67.2525
1431.0670	67.2306
1432.5880	67.1630
1433.9440	67.0773
1435.3010	67.0540
1436.7120	67.0865
1438.2330	67.1397
1439.6990	67.1666
1441.1650	67.1593
1442.6100	67.1256
1444.0870	67.0867
1445.5960	67.0453
1446.9970	67.0058
1448.5720	66.9484
1450.0600	66.9352
1451.5260	66.8815
1453.0140	66.9622
1454.5020	66.9600
1455.9680	66.9685
1457.3360	66.9362
1458.7470	66.9058
1460.2350	66.8899
1461.6140	66.9468
1462.8940	67.0876
1464.2830	67.2277
1465.5310	67.4255
1467.0410	67.5236
1468.3640	67.5136
1469.7320	67.4931
1471.1650	67.4782
1472.4240	67.4612
1473.6270	67.4534
1474.9290	67.3958
1476.3190	67.2713
1477.7520	67.1355
1479.0980	66.9440
1480.4430	66.7656
1481.6250	66.6034
1482.9050	66.4776
1484.1630	66.2837
1485.4760	66.1228
1486.8980	65.9621
1488.2220	65.8282
1489.4700	65.7562
1490.6950	65.6621
1491.9970	65.6817
1493.3970	65.6452
1494.6770	65.5563
1495.8480	65.4435
1497.2270	65.2768
1498.5720	65.2030
1499.7430	65.1837
1501.0450	65.2547
1502.2920	65.3161
1503.4960	65.3255
1504.7870	65.2015
1506.0010	65.0029
1507.1720	64.9006
1508.4300	64.8814
1509.6880	64.9886
1510.9680	65.0677
1512.3250	65.0722
1513.5610	64.9293
1514.8850	64.7895
1516.1220	64.7387
1517.3580	64.7703
1518.6820	64.7974
1520.0170	64.7104
1521.3190	64.6556
1522.6640	64.5870
1523.9660	64.5706
1525.1700	64.5529
1526.4060	64.5301
1527.8280	64.5709
1529.2400	64.6717
1530.4430	64.7439
1531.7340	64.8774
1532.9270	65.0317
1534.1520	65.2189
1535.3780	65.3863
1536.7340	65.5373
1538.0580	65.5614
1539.2940	65.5778
1540.4760	65.5709
1541.6800	65.5839
1542.9710	65.7107
1544.2730	65.8316
1545.5090	65.9041
1546.8550	65.8847
1548.0910	65.8027
1549.3050	65.7295
1550.5530	65.7207
1551.7130	65.7886
1552.9810	65.8149
1554.3490	65.7375
1555.6400	65.6063
1556.8550	65.4678
1558.0910	65.4668
1559.3270	65.5673
1560.4110	65.6273
1561.6800	65.7437
1562.9160	65.7277
1564.1630	65.6504
1565.4540	65.6058
1566.6360	65.6535
1567.9490	65.7940
1569.1630	65.9141
1570.4100	65.9899
1571.6800	65.9750
1572.9050	65.9198
1574.1740	65.9057
1575.4100	65.8890
1576.6140	65.9946
1577.8390	66.1358
1578.9990	66.1468
1580.2460	66.1086
1581.5810	65.9633
1582.7630	65.8659
1584.0760	65.9007
1585.1920	65.9723
1586.6140	66.1077
1587.7850	66.2557
1588.9330	66.3341
1590.0930	66.3085
1591.2970	66.3123
1592.6530	66.2916
1593.9230	66.2570
1595.2030	66.2622
1596.4390	66.2149
1597.6750	66.2230
1598.9660	66.2099
1600.2360	66.1481
1601.4500	66.1360
1602.7300	66.1601
1604.0320	66.2479
1605.2240	66.3664
1606.3950	66.3950
1607.5550	66.4635
1608.8790	66.4140
1610.0820	66.4348
1611.3620	66.3653
1612.5880	66.3476
1613.7370	66.3817
1614.8630	66.4900
1616.0560	66.6989
1617.2920	66.8335
1618.4740	66.8311
1619.8630	66.7687
1621.0450	66.6532
1622.1640	66.6373
1623.3100	66.5970
1624.4800	66.5632
1625.7170	66.5108
1626.8110	66.4669
1627.9050	66.3775
1629.0650	66.2694
1630.2570	66.1178
1631.3950	66.0219
1632.6430	66.0529
1633.8380	66.0530
1634.9290	66.0211
1636.1220	65.8842
1637.3250	65.7714
1638.4410	65.7014
1639.5680	65.7827
1640.6510	65.8500
1641.7230	65.9218
1642.8060	65.9248
1643.9550	65.7662
1645.0490	65.5563
1646.2970	65.3640
1647.4020	65.2696
1648.6160	65.3146
1649.8200	65.2724
1650.9800	65.2261
1652.1720	65.2034
1653.2660	65.3014
1654.4180	65.3742
1655.5420	65.3968
1656.7560	65.3006
1657.8610	65.1614
1658.8790	65.0501
1660.0280	64.9521
1661.1280	64.8945
1662.3030	64.8459
1663.3650	64.8184
1664.5130	64.8629
1665.7060	65.0085
1666.9200	65.1589
1668.0470	65.3137
1669.1960	65.4149
1670.3340	65.4257
1671.4830	65.3813
1672.5770	65.2838
1673.7260	65.1987
1674.9840	65.0882
1676.1110	64.9627
1677.2160	64.9249
1678.1790	64.8981
1679.4040	64.9022
1680.4210	64.8395
1681.4830	64.8395
1682.7190	64.8990
1683.9550	65.0067
1684.8850	65.1142
1685.9250	65.1361
1686.9530	65.1610
1688.1570	65.2025
1689.2290	65.1775
1690.3990	65.0778
1691.3960	64.9592
1692.5000	64.8461
1693.5830	64.8384
1694.7760	64.7935
1695.9150	64.7382
1696.8770	64.6940
1697.9270	64.5604
1698.9770	64.3774
1700.0280	64.2590
1701.0560	64.1948
1702.0730	64.1918
1703.1240	64.2688
1704.2940	64.3120
1705.3230	64.2297
1706.3950	64.0239
1707.5330	63.8794
1708.5180	63.7944
1709.5350	63.9251
1710.5310	64.0195
1711.6140	63.9957
1712.6320	63.9202
1713.6380	63.8257
1714.7320	63.8228
1715.6730	63.7841
1716.7010	63.6791
1717.7080	63.4598
1718.7910	63.3153
1719.7980	63.2535
1720.7720	63.2875
1721.7890	63.3833
1722.8280	63.4095
1723.8350	63.4208
1724.9400	63.4811
1725.9680	63.4716
1726.9860	63.4311
1728.0580	63.3044
1729.1850	63.1435
1730.2350	63.0614
1731.2860	63.0037
1732.4340	63.0310
1733.3210	63.1016
1734.3050	63.1442
1735.2900	63.2029
1736.2890	63.2041
1737.3140	63.2493
1738.3540	63.3519
1739.4590	63.4329
1740.5530	63.5559
1741.5370	63.6039
1742.6640	63.6832
1743.8130	63.8052
1744.8520	63.9882
1745.9030	64.1217
1747.0190	64.1704
1748.1240	64.2289
1749.2070	64.2565
1750.3120	64.3416
1751.3190	64.3255
1752.4020	64.2843
1753.4960	64.2117
1754.6770	64.1186
1755.7280	64.2088
1756.7560	64.3743
1757.7190	64.6574
1758.9120	64.9312
1759.9730	65.1727
1760.9790	65.3600
1762.0620	65.4697
1763.1130	65.5190
1764.1290	65.5703
1765.2010	65.5799
1766.2390	65.5768
1767.2880	65.6138
1768.3680	65.6247
1769.4040	65.6476
1770.4960	65.6371
1771.4940	65.5789
1772.3870	65.5165
1773.4880	65.5169
1774.5620	65.5612
1775.6630	65.5378
1776.6410	65.4762
1777.8320	65.3536
1778.9370	65.3365
1780.0780	65.3822
1781.0220	65.4166
1781.9080	65.4365
1782.9020	65.4564
1783.8960	65.4197
1784.9670	65.4076
1786.0300	65.4025
1786.9960	65.3835
1788.0110	65.4000
1789.0480	65.4626
1789.9850	65.4384
1791.0420	65.4398
1792.0670	65.3604
1793.1090	65.3030
1794.2010	65.3759
1795.3030	65.4867
1796.3490	65.5972
1797.3540	65.5784
1798.3640	65.5224
1799.3600	65.4051
1800.2980	65.2427
1801.2700	64.9761
1802.2990	64.6838
1803.2690	64.6180
1804.2910	64.7312
1805.2850	64.9477
1806.2590	65.1232
1807.3100	65.1426
1808.4200	65.1032
1809.5040	65.0641
1810.5300	65.0836
1811.5220	65.1960
1812.4810	65.3335
1813.4590	65.4320
1814.3240	65.4604
1815.3780	65.4501
1816.3210	65.3529
1817.3120	65.1844
1818.3430	65.0216
1819.3710	64.9078
1820.4500	64.8397
1821.4880	64.8971
1822.4930	64.9603
1823.4310	65.1081
1824.4190	65.2034
1825.3830	65.2855
1826.4450	65.3233
1827.4240	65.3738
1828.3880	65.4627
1829.3670	65.4507
1830.3360	65.3263
1831.3990	65.1197
1832.2580	64.9138
1833.2750	64.8309
1834.3810	64.8528
1835.2770	64.9729
1836.3210	65.1352
1837.3840	65.2931
1838.3430	65.3932
1839.3670	65.4185
1840.3270	65.4578
1841.3190	65.4217
1842.3390	65.3117
1843.3880	65.2014
1844.4760	65.1225
1845.5050	65.1541
1846.4020	65.2500
1847.3540	65.3206
1848.3280	65.3373
1849.3080	65.3827
1850.2030	65.4187
1851.1970	65.5182
1852.2570	65.5582
1853.2910	65.6344
1854.3030	65.7413
1855.2930	65.7248
1856.2800	65.7804
1857.2690	65.7840
1858.2440	65.7359
1859.3270	65.7392
1860.3540	65.6712
1861.3020	65.6846
1862.3340	65.7613
1863.3730	65.8146
1864.2680	65.8124
1865.2930	65.6896
1866.3280	65.5435
1867.3490	65.4751
1868.3100	65.5144
1869.2350	65.6400
1870.1670	65.7793
1871.1110	65.9446
1872.0170	66.1279
1873.0080	66.2191
1873.9810	66.2658
1874.9770	66.1958
1875.9600	66.1082
1877.0060	66.0930
1878.0570	66.1172
1879.0950	66.1775
1880.1550	66.1715
1881.1420	66.0820
1882.1440	66.0360
1883.2230	65.9743
1884.2340	65.9670
1885.2800	66.0202
1886.2970	66.0436
1887.3200	66.0448
1888.3140	65.9952
1889.3970	65.9348
1890.4140	66.0183
1891.3980	66.1894
1892.4630	66.4238
1893.5320	66.7174
1894.4330	66.9314
1895.5130	67.1678
1896.5410	67.2996
1897.4510	67.4211
1898.4690	67.5266
1899.5380	67.5666
1900.5510	67.5788
1901.6490	67.5425
1902.7220	67.5423
1903.7630	67.5655
1904.8100	67.5927
1905.8910	67.6008
1906.8330	67.6106
1907.8610	67.6802
1908.8870	67.7739
1909.8890	67.8443
1910.9510	67.8496
1912.0870	67.8327
1913.1860	67.8224
1914.1860	67.8224
1915.1620	67.8788
1916.1440	67.9312
1917.2190	67.9750
1918.3070	68.1648
1919.4360	68.3249
1920.5200	68.5237
1921.5240	68.7113
1922.5390	68.7177
1923.6700	68.6815
1924.7200	68.6025
1925.8340	68.5711
1926.9580	68.5329
1928.1060	68.6221
1929.1840	68.7586
1930.2030	68.9463
1931.3720	69.1477
1932.5250	69.3069
1933.5990	69.3291
1934.7780	69.3199
1935.9370	69.3696
1937.0180	69.5986
1938.0680	69.8548
1939.1360	70.1439
1940.2900	70.2822
1941.4940	70.3244
1942.5660	70.3601
1943.7150	70.5785
1944.9070	70.8020
1946.0450	71.0534
1947.1390	71.2576
1948.2330	71.3419
1949.3820	71.4055
1950.5850	71.4128
1951.7780	71.4621
1952.8390	71.5803
1954.0320	71.6985
1955.3340	71.7719
1956.5810	71.7609
1957.8500	71.7406
1959.1960	71.7864
1960.3780	71.9919
1961.6360	72.3068
1962.8500	72.5578
1963.9770	72.6690
1965.1260	72.7533
1966.2750	72.8347
1967.4240	72.9503
1968.5720	73.0617
1969.7210	73.2379
1970.7930	73.5117
1971.8770	73.7177
1973.0030	73.8906
1974.1300	73.9870
1975.2030	74.0852
1976.2860	74.2342
1977.4780	74.3137
1978.4190	74.2849
1979.5680	74.1422
1980.4870	73.8188
1981.4830	73.5300
1982.4340	73.1808
1983.5620	72.8598
1984.5900	72.5792
1985.5310	72.4013
1986.4940	72.1724
1987.4460	72.0507
1988.3760	71.8710
1989.4480	71.6918
1990.3230	71.3914
1991.3840	71.1370
1992.3360	70.8845
1993.3100	70.6849
1994.2620	70.4806
1995.1920	70.2324
1996.0340	70.0542
1996.9860	69.7503
1997.8500	69.4938
1998.7360	69.1982
1999.5790	68.9039
2000.4430	68.7164
2001.3840	68.6630
2002.2050	68.5984
2003.0800	68.5838
2003.9110	68.3245
2004.7980	68.1194
2005.6290	67.8927
2006.5260	67.7333
2007.4340	67.7259
2008.3320	67.7134
2009.2070	67.5983
2010.1480	67.5181
2010.9250	67.3148
2011.7560	67.1307
2012.7520	66.9205
2013.6160	66.6759
2014.4150	66.5446
2015.4160	66.4526
2016.4500	66.4249
2017.3030	66.4682
2018.1020	66.5400
2018.9880	66.6129
2019.8410	66.7702
2020.7480	66.8410
2021.6140	66.9757
2022.5290	67.0434
2023.5020	67.1845
2024.4360	67.3422
2025.2540	67.5443
2026.1450	67.7074
2026.8770	67.7971
2027.7370	67.9210
2028.5500	68.0217
2029.4760	68.0686
2030.4100	68.1758
2031.3110	68.3073
2032.1670	68.4905
2033.0930	68.6448
2034.0480	68.8031
2034.8920	68.8555
2035.8460	68.8438
2036.8150	68.7650
2037.7700	68.6762
2038.7060	68.7674
2039.5750	69.0273
2040.4670	69.2936
2041.3640	69.4458
2042.1880	69.6514
2043.0100	69.7142
2043.8610	69.7029
2044.7880	69.6913
2045.6360	69.6550
2046.5270	69.7718
2047.4430	70.0707
2048.3840	70.4011
2049.2840	70.8109
2050.2710	71.0456
2051.2180	71.1735
2052.0640	71.2224
2052.9720	71.2794
2053.8900	71.3412
2054.8260	71.4232
2055.6600	71.4801
2056.5830	71.4896
2057.4160	71.5081
2058.2280	71.3957
2059.1040	71.2277
2060.0390	71.1258
2060.8800	71.0911
2061.7330	71.1105
2062.6920	71.2302
2063.5980	71.4068
2064.4180	71.5759
2065.2690	71.7696
2066.1270	71.9224
2067.0930	72.0381
2067.9580	72.1558
2068.8310	72.2116
2069.7740	72.2276
2070.6170	72.1914
2071.4840	72.0523
2072.3720	71.9749
2073.2930	71.9209
2074.3120	71.9413
2075.2370	71.9659
2076.2200	71.9633
2077.1420	72.0058
2078.0590	72.1138
2078.9960	72.3025
2079.9820	72.4927
2080.9240	72.6543
2081.8440	72.8365
2082.7880	72.9160
2083.7340	73.0123
2084.7160	73.0603
2085.7040	73.1856
2086.6770	73.3821
2087.5760	73.5537
2088.5420	73.6944
2089.5180	73.8129
2090.4830	73.8779
2091.4580	74.0255
2092.4620	74.2134
2093.4040	74.4739
2094.4000	74.6922
2095.3990	74.7651
2096.3750	74.7878
2097.3390	74.6979
2098.4300	74.6896
2099.4210	74.7277
2100.4170	74.8535
2101.3920	74.9204
2102.2990	74.9506
2103.1940	75.0160
2104.2060	75.0987
2105.1810	75.2084
2106.1190	75.2592
2107.1870	75.2501
2108.1980	75.2349
2109.2830	75.3150
2110.2720	75.3941
2111.2230	75.5251
2112.1030	75.6077
2112.9220	75.6676
2113.8700	75.6920
2114.8260	75.7187
2115.7140	75.7141
2116.7140	75.6754
2117.5990	75.6374
2118.4630	75.5796
2119.3090	75.4037
2120.3340	75.2054
2121.2620	74.9393
2122.1940	74.7281
2123.1660	74.6580
2124.1270	74.6609
2125.0570	74.6815
2125.9510	74.6691
2126.9030	74.6185
2127.7560	74.4919
2128.5590	74.2993
2129.4630	73.9576
2130.4440	73.4553
2131.3470	73.0056
2132.2850	72.7315
2133.1630	72.6996
2134.0480	72.7562
2134.9380	72.7884
2135.8270	72.7981
2136.7550	72.7151
2137.6570	72.6184
2138.5790	72.6078
2139.5410	72.6705
2140.4310	72.7382
2141.3960	72.7293
2142.2190	72.6294
2143.1710	72.5008
2144.0910	72.3604
2145.0720	72.1783
2145.9990	72.0125
2146.8800	71.8843
2147.8330	71.9036
2148.8310	72.0171
2149.7810	72.2145
2150.7000	72.2502
2151.6250	72.1967
2152.6050	72.0962
2153.5730	72.0918
2154.5510	72.2111
2155.4680	72.3037
2156.3970	72.4345
2157.3580	72.4604
2158.3880	72.5382
2159.3540	72.5224
2160.3450	72.5637
2161.2410	72.5723
2162.2580	72.6031
2163.1460	72.7218
2164.0920	72.8164
2165.0470	72.8949
2165.9630	72.9070
2166.8560	72.9362
2167.7340	72.9700
2168.6290	72.9557
2169.5270	72.8854
2170.4100	72.7938
2171.2530	72.7277
2172.1150	72.7201
2173.0670	72.6549
2173.9810	72.5681
2174.8430	72.4195
2175.7280	72.3338
2176.4830	72.2720
2177.3140	72.1734
2178.1690	71.9839
2179.0040	71.7102
2179.8510	71.3991
2180.7780	71.2055
2181.5990	70.9749
2182.4100	70.7945
2183.2920	70.5935
2184.1690	70.3542
2184.9970	70.1342
2185.8150	69.9804
2186.5940	69.8101
2187.4830	69.7084
2188.2870	69.5954
2189.2400	69.4565
2190.0520	69.3659
2190.9100	69.3048
2191.7320	69.2373
2192.5720	69.0968
2193.4710	68.8867
2194.2750	68.6316
2195.1660	68.5571
2196.0070	68.6044
2196.8030	68.6700
2197.5660	68.7642
2198.3560	68.7907
2199.2740	68.6796
2200.1070	68.5591
2200.9060	68.4769
2201.8480	68.4135
2202.7140	68.4090
2203.6410	68.3374
2204.5500	68.3312
2205.4420	68.4105
2206.2620	68.5245
2207.1100	68.6008
2208.0110	68.5489
2208.7870	68.4636
2209.6850	68.3654
2210.4740	68.3740
2211.3580	68.4131
2212.2250	68.4320
2213.0840	68.4426
2213.8760	68.4033
2214.7790	68.4202
2215.5820	68.4458
2216.3940	68.5807
2217.3040	68.7839
2218.1990	68.9158
2219.0290	69.0232
2219.9100	69.1129
2220.7760	69.1023
2221.7130	69.0898
2222.6280	68.8789
2223.4870	68.7379
2224.3210	68.6236
2225.2480	68.6036
2226.1100	68.6332
2226.9630	68.6962
2227.9800	68.8020
2228.9110	68.9629
2229.9790	69.1694
2230.9030	69.2992
2231.7930	69.4745
2232.7550	69.6794
2233.5380	69.8836
2234.4090	70.1818
2235.2790	70.5305
2236.1170	70.7962
2236.9650	71.1575
2237.8810	71.4143
2238.7680	71.6913
2239.5500	71.9571
2240.4590	72.1599
2241.3910	72.3336
2242.2740	72.4389
2243.1720	72.5634
2244.0510	72.7686
2244.8800	72.9394
2245.8300	73.2139
2246.6300	73.4706
2247.4990	73.5684
2248.3880	73.6568
2249.1520	73.5381
2250.1310	73.3207
2250.9620	73.0934
2251.9110	72.8739
2252.7550	72.7994
2253.6040	72.9072
2254.5110	73.0343
2255.3320	73.2318
2256.2400	73.3785
2256.9950	73.5387
2257.7970	73.6489
2258.5750	73.8076
2259.4490	73.9935
2260.3080	74.0933
2261.1390	74.1920
2261.9830	74.2053
2262.8150	74.1066
2263.7450	74.0327
2264.5860	74.0817
2265.4160	74.0703
2266.3210	74.1233
2267.0490	74.1646
2267.8490	74.1588
2268.7240	74.2443
2269.5600	74.3253
2270.3400	74.3297
2271.0980	74.3094
2271.9520	74.1685
2272.7950	74.0514
2273.6090	73.9348
2274.3740	73.8415
2275.1450	73.7850
2275.9430	73.6677
2276.7260	73.6824
2277.6160	73.7553
2278.4560	73.9392
2279.2040	74.0721
2279.9740	74.1111
2280.7490	74.1464
2281.5270	74.1411
2282.2810	74.2172
2283.0740	74.1999
2283.8670	74.1405
2284.6460	74.0589
2285.5050	73.9187
2286.2520	73.8755
2287.0610	73.9142
2287.9180	73.9375
2288.7280	74.0101
2289.4720	74.0156
2290.2680	74.0595
2291.0970	74.1906
2291.9380	74.2859
2292.7780	74.3352
2293.6050	74.3610
2294.4320	74.4931
2295.2990	74.6879
2296.1520	74.9123
2296.9800	75.0560
2297.8200	75.1189
2298.5860	75.1782
2299.3680	75.2455
2300.1789	75.4419
2300.9269	75.6883
2301.6952	75.9092
2302.5675	76.1804
2303.3525	76.4153
2304.0895	76.6837
2304.8905	76.8705
2305.6065	77.0133
2306.3145	77.1382
2307.1175	77.2848
2307.9045	77.3775
2308.6249	77.4823
2309.3855	77.5605
2310.0525	77.6711
2310.7001	77.8332
2311.3907	77.9685
2312.1055	78.0348
2312.8545	78.0202
2313.5025	77.9911
2314.2203	77.9421
2314.9108	77.8933
2315.6555	77.8008
2316.3798	77.6122
2317.0472	77.4538
2317.7635	77.1957
2318.4955	77.0502
2319.2301	76.9612
2319.9595	76.9150
2320.7749	76.8975
2321.5134	76.8630
2322.2215	76.7827
2322.8535	76.6625
2323.4865	76.5430
2324.1793	76.4185
2324.8327	76.3200
2325.4765	76.3436
2326.0765	76.3402
2326.7015	76.3565
2327.4165	76.3196
2328.0481	76.1999
2328.7285	76.0366
2329.3815	75.9617
2330.0975	76.0051
2330.7445	76.0991
2331.4925	76.2329
2332.1055	76.3137
2332.7815	76.3056
2333.4105	76.3852
2333.9845	76.4377
2334.5563	76.5079
2335.1635	76.5818
2335.7454	76.5497
2336.3875	76.5148
2337.0435	76.5112
2337.7894	76.4768
2338.4594	76.4252
2339.2182	76.2799
2339.9194	76.0573
2340.6554	75.7425
2341.4104	75.4422
2342.0804	75.2696
2342.7494	75.2570
2343.4534	75.3402
2344.0924	75.4315
2344.7724	75.4694
2345.4034	75.5794
2345.9464	75.7482
2346.4964	75.8740
2347.0844	76.0022
2347.6503	76.0520
2348.2194	76.0893
2348.8341	76.1247
2349.4353	76.0660
2350.0213	76.0375
2350.5896	75.8902
2351.2109	75.7737
2351.8163	75.7063
2352.3992	75.6574
2352.9823	75.7212
2353.6293	75.8762
2354.2014	76.1315
2354.7473	76.3724
2355.2673	76.6394
2355.8673	76.8674
2356.4313	77.0687
2357.0213	77.1181
2357.5615	77.0286
2358.1657	76.8980
2358.7394	76.6368
2359.2977	76.4587
2359.7657	76.2288
2360.2091	75.9991
2360.6983	75.7393
2361.1782	75.5026
2361.6693	75.2552
2362.1985	75.0604
2362.7050	74.8271
2363.2212	74.5918
2363.7609	74.2930
2364.2876	74.1428
2364.8670	74.0660
2365.3966	74.1379
2365.9286	74.2457
2366.4517	74.3483
2366.9871	74.3981
2367.4675	74.4072
2368.0438	74.3656
2368.5467	74.3097
2369.0396	74.2590
2369.5256	74.2131
2370.0245	74.1540
2370.5266	74.0700
2370.9726	73.9869
2371.5141	73.8469
2372.0059	73.7107
2372.4539	73.5334
2372.9496	73.4118
2373.4466	73.3659
2373.9276	73.3437
2374.4026	73.2794
2374.8846	73.2120
2375.4236	73.0618
2375.8570	72.9096
2376.3504	72.7616
2376.7835	72.5734
2377.2349	72.3483
2377.7417	72.2706
2378.2607	72.3486
2378.7207	72.5553
2379.2227	72.8196
2379.7337	73.0456
2380.3067	73.2212
2380.8839	73.3179
2381.4187	73.3593
2381.9454	73.3457
2382.4487	73.3674
2382.9680	73.2768
2383.4552	73.1775
2383.9562	73.0815
2384.4132	73.0152
2384.8162	72.9800
2385.2952	72.9909
2385.7842	72.9964
2386.3012	72.9254
2386.7272	72.9131
2387.2086	72.8976
2387.6521	72.9305
2388.0271	73.0119
2388.4351	73.0635
2388.8701	73.1522
2389.2982	73.2219
2389.7661	73.3048
2390.2341	73.3709
2390.7061	73.4300
2391.1271	73.5209
2391.6061	73.5768
2392.0761	73.6514
2392.5701	73.7313
2393.0732	73.8217
2393.5221	73.8458
2393.9718	73.9296
2394.5388	73.9613
2395.0001	74.0833
2395.4414	74.2842
2395.8945	74.4306
2396.3041	74.5127
2396.7476	74.5606
2397.1968	74.5643
2397.6549	74.6052
2398.1069	74.6065
2398.6068	74.4747
2399.0378	74.2233
2399.4129	73.9864
2399.7799	73.7594
2400.1809	73.5900
2400.5599	73.4496
2400.9549	73.2968
2401.3289	73.1795
2401.7683	73.0606
2402.2287	72.9686
2402.6447	72.9727
2403.0563	72.9959
2403.4694	73.0066
2403.8324	72.9352
2404.2227	72.8207
2404.5684	72.6900
2404.9594	72.6063
2405.3904	72.6003
2405.8174	72.6595
2406.2220	72.8039
2406.5804	72.9682
2406.9989	73.1593
2407.3824	73.2241
2407.7354	73.2070
2408.1774	73.1776
2408.5514	73.1270
2408.9824	73.0948
2409.3650	73.0652
2409.7354	73.0361
2410.1254	72.9049
2410.4734	72.7612
2410.8294	72.6111
2411.2214	72.4318
2411.6064	72.2755
2411.9814	72.0943
2412.3446	71.8825
2412.6874	71.6931
2413.0594	71.5183
2413.4764	71.4730
2413.8774	71.3897
2414.2904	71.3095
2414.6524	71.1920
2415.0794	71.0367
2415.4594	70.8263
2415.8299	70.6624
2416.2164	70.5116
2416.5964	70.4554
2416.9444	70.5201
2417.3184	70.6366
2417.6914	70.7328
2418.0564	70.8449
2418.4374	70.9671
2418.8394	71.0237
2419.2534	71.0001
2419.6374	70.9377
2420.0164	70.8029
2420.3964	70.7451
2420.7454	70.7627
2421.0854	70.8122
2421.4746	70.9533
2421.8460	71.0989
2422.1960	71.2287
2422.5893	71.2970
2422.9060	71.3041
2423.2460	71.2622
2423.5940	71.2732
2423.8960	71.2923
2424.2000	71.3213
2424.5200	71.4207
2424.8884	71.5098
2425.2320	71.5495
2425.5700	71.6382
2426.0500	71.6408
2426.4460	71.6401
2426.8860	71.6886
2427.3137	71.7350
2427.6397	71.8912
2427.9967	72.0123
2428.3417	72.1727
2428.7127	72.3059
2429.1007	72.4185
2429.4527	72.5128
2429.7962	72.6513
2430.1437	72.7921
2430.4887	72.9673
2430.8617	73.0623
2431.2237	73.1160
2431.5987	73.0882
2431.9551	73.0745
2432.2967	73.0540
2432.6887	73.0617
2433.0406	73.0902
2433.4199	73.1099
2433.7931	73.1582
2434.1436	73.2073
2434.5026	73.2838
2434.8233	73.3815
2435.1946	73.4820
2435.5652	73.5462
2435.9416	73.6026
2436.3219	73.5950
2436.6858	73.5603
2437.0348	73.5117
2437.3358	73.4494
2437.6463	73.4095
2438.0008	73.4198
2438.3343	73.4841
2438.6683	73.5441
2438.9953	73.6133
2439.3963	73.6802
2439.7626	73.7061
2440.1256	73.7589
2440.5046	73.8283
2440.8113	73.9097
2441.1566	74.0969
2441.4636	74.2841
2441.7526	74.5130
2442.0874	74.7950
2442.4427	74.9880
2442.7557	75.1650
2443.0745	75.2859
2443.4226	75.2969
2443.7316	75.2450
2444.0156	75.1448
2444.3186	74.9466
2444.6096	74.6901
2444.9346	74.5629
2445.2836	74.4551
2445.6316	74.4410
2445.9716	74.4927
2446.2743	74.4803
2446.5473	74.4794
2446.8413	74.4683
2447.1214	74.4408
2447.4133	74.4632
2447.7313	74.4917
2448.0568	74.4952
2448.3676	74.5000
2448.6733	74.4502
2449.0443	74.3788
2449.3383	74.3441
2449.6133	74.2921
2449.9473	74.2369
2450.2863	74.1651
2450.5973	74.0368
2450.9173	73.9313
2451.2095	73.8048
2451.5335	73.7157
2451.8525	73.6633
2452.1415	73.5965
2452.5139	73.5051
2452.8102	73.3310
2453.1372	73.1168
2453.4315	72.9055
2453.7472	72.7685
2454.0395	72.6890
2454.3285	72.6994
2454.6495	72.7179
2454.9465	72.7238
2455.2834	72.6888
2455.6244	72.6387
2455.9694	72.5384
2456.3054	72.3211
2456.6254	72.0967
2456.9084	71.9159
2457.2164	71.7626
2457.5204	71.6395
2457.8114	71.5858
2458.1314	71.5829
2458.4444	71.5967
2458.7624	71.5979
2459.0981	71.5625
2459.3881	71.5183
2459.6804	71.4678
2459.9804	71.4352
2460.2718	71.4491
2460.5804	71.4956
2460.8783	71.5831
2461.2114	71.6552
2461.5435	71.6758
2461.8794	71.6122
2462.2078	71.5054
2462.5108	71.4144
2462.8402	71.4297
2463.1588	71.5650
2463.4443	71.7360
2463.7493	71.8769
2464.0823	71.9667
2464.4008	72.0080
2464.7183	72.0199
2465.0163	72.0037
2465.2875	71.9767
2465.5905	71.9654
2465.9155	71.9716
2466.2438	71.9999
2466.5434	71.9987
2466.8294	71.9555
2467.1584	71.9161
2467.4534	71.9332
2467.7654	71.9421
2468.1094	71.9627
2468.3904	71.9696
2468.6974	71.9310
2468.9684	71.8961
2469.2799	71.8279
2469.5534	71.8372
2469.8724	71.8623
2470.1944	71.9411
2470.5174	72.0556
2470.8364	72.1420
2471.1574	72.2728
2471.4807	72.3257
2471.7926	72.3318
2472.0766	72.2861
2472.3726	72.2090
2472.6628	72.1468
2472.9744	72.1463
2473.2692	72.2122
2473.5834	72.3091
2473.9053	72.4581
2474.1894	72.5693
2474.4754	72.6655
2474.7771	72.7712
2475.0874	72.8051
2475.3792	72.8166
2475.6724	72.8826
2475.9634	72.9301
2476.2464	73.0609
2476.5684	73.2140
2476.8634	73.3279
2477.1384	73.4188
2477.4584	73.4915
2477.7704	73.5428
2478.0534	73.5538
2478.3818	73.5225
2478.7027	73.4960
2479.0287	73.4743
2479.3217	73.4772
2479.6137	73.5015
2479.8955	73.5395
2480.2077	73.5854
2480.5247	73.6259
2480.8417	73.6126
2481.1697	73.6062
2481.5037	73.6719
2481.8351	73.8089
2482.1737	73.9021
2482.5144	73.9257
2482.8564	73.9477
2483.1834	73.9926
2483.4659	74.0275
2483.7784	74.0977
2484.0524	74.1205
2484.3681	74.1279
2484.7351	74.1628
2485.0491	74.2273
2485.3630	74.3574
2485.6669	74.4795
2485.9548	74.6010
2486.2293	74.6940
2486.5308	74.7503
2486.8498	74.7636
2487.1578	74.7449
2487.4948	74.7383
2487.8225	74.7042
2488.1398	74.7123
2488.4678	74.7391
2488.7818	74.8205
2489.0839	74.9545
2489.4009	75.0476
2489.7239	75.1337
2490.0629	75.1630
2490.4359	75.2201
2490.7328	75.3012
2491.0689	75.4059
2491.3959	75.5229
2491.7229	75.6292
2491.9959	75.7164
2492.2895	75.8228
2492.6085	75.9618
2492.9295	76.0896
2493.2225	76.1908
2493.5225	76.3277
2493.8205	76.4315
2494.1155	76.5170
2494.4345	76.6104
2494.7205	76.6701
2495.0505	76.7285
2495.3495	76.7692
2495.6385	76.7875
2495.9475	76.8504
2496.2566	76.9572
2496.5395	77.1020
2496.8485	77.2342
2497.1197	77.3323
2497.4295	77.3708
2497.7345	77.4023
2498.0405	77.4289
2498.3595	77.4025
2498.7059	77.3452
2499.0675	77.2622
2499.4415	77.1623
2499.7865	77.1270
2500.1395	77.1398
2500.4415	77.2533
2500.7660	77.3454
2501.0835	77.3826
2501.3597	77.3890
2501.6451	77.3496
2501.9697	77.3442
2502.2759	77.4222
2502.5727	77.5638
2502.8760	77.7067
2503.1697	77.8663
2503.4823	77.9978
2503.7650	78.0470
2504.0706	78.0748
2504.4006	78.0688
2504.7256	78.0626
2505.0286	78.0639
2505.3146	78.0963
2505.6186	78.1433
2505.9286	78.1892
2506.2430	78.2085
2506.6076	78.1454
2506.9495	78.0386
2507.2708	77.9312
2507.5848	77.8293
2507.9248	77.7705
2508.2438	77.7489
2508.5638	77.8124
2508.8523	77.8612
2509.1733	77.8848
2509.5013	77.8972
2509.7623	77.9267
2510.0841	77.9944
2510.3713	78.0521
2510.6653	78.1037
2510.9793	78.1499
2511.3231	78.1690
2511.6153	78.2113
2511.9043	78.2495
2512.2403	78.3121
2512.6061	78.3679
2512.9243	78.4481
2513.2473	78.5532
2513.5603	78.6893
2513.8683	78.8128
2514.1360	78.9150
2514.4884	78.9982
2514.7664	79.0262
2515.0874	78.9665
2515.3834	78.7901
2515.7004	78.5779
2515.9944	78.3680
2516.3054	78.2125
2516.6354	78.0802
2516.9814	78.0148
2517.3323	78.0438
2517.6717	78.1372
2518.0083	78.2203
2518.3310	78.2793
2518.6718	78.3043
2518.9831	78.3652
2519.3111	78.4297
2519.6121	78.4974
2519.9461	78.5751
2520.2759	78.6320
2520.6141	78.6449
2520.9361	78.6482
2521.2451	78.6779
2521.5761	78.7710
2521.8861	78.8769
2522.2141	78.9571
2522.5595	78.9515
2522.9185	78.8596
2523.2577	78.7703
2523.5825	78.7300
2523.9035	78.7284
2524.2295	78.7380
2524.5518	78.7753
2524.8679	78.8579
2525.1601	78.9292
2525.4540	79.0383
2525.7610	79.1705
2526.0870	79.2812
2526.3979	79.4874
2526.7287	79.6656
2527.0366	79.8353
2527.3102	79.9408
2527.6346	80.0455
2527.9296	80.1620
2528.2316	80.2827
2528.5366	80.3377
2528.8516	80.3407
2529.1416	80.2967
2529.4466	80.2850
2529.7426	80.3490
2530.0096	80.4696
2530.3506	80.5920
2530.6426	80.7209
2530.9106	80.8509
2531.1686	80.9711
2531.4746	81.0538
2531.7666	81.1702
2532.0432	81.2477
2532.3176	81.3812
2532.6056	81.4702
2532.9173	81.5366
2533.2246	81.5315
2533.5166	81.4516
2533.8036	81.3608
2534.1256	81.2789
2534.4156	81.1934
2534.7212	81.1098
2534.9976	81.0563
2535.2972	81.0175
2535.5976	81.0230
2535.8852	81.0179
2536.2115	80.9931
2536.5176	80.9312
2536.8416	80.8649
2537.1516	80.8274
2537.4186	80.7963
2537.7040	80.7886
2537.9946	80.7372
2538.3045	80.6416
2538.6082	80.4737
2538.9169	80.2525
2539.2212	80.0818
2539.4952	79.9599
2539.7492	79.8898
2540.0417	79.8205
2540.3332	79.7211
2540.5782	79.6776
2540.8342	79.6556
2541.1062	79.6669
2541.3752	79.6704
2541.6832	79.6345
2541.9570	79.5614
2542.2632	79.4642
2542.5390	79.4286
2542.8072	79.3813
2543.0582	79.3635
2543.3432	79.3651
2543.6322	79.3265
2543.9232	79.3098
2544.1712	79.2744
2544.4532	79.2362
2544.7452	79.2367
2545.0514	79.2581
2545.3322	79.2919
2545.6182	79.2949
2545.9226	79.2812
2546.1888	79.3175
2546.5146	79.4623
2546.8056	79.6040
2547.0967	79.7373
2547.4126	79.8436
2547.6796	79.9375
2547.9876	80.0561
2548.2818	80.1304
2548.5748	80.1532
2548.8468	80.1936
2549.1268	80.2101
2549.4193	80.2323
2549.7173	80.2416
2549.9953	80.2249
2550.2593	80.2439
2550.5573	80.2930
2550.8233	80.3486
2551.1273	80.4131
2551.4423	80.4142
2551.7066	80.3769
2551.9863	80.2579
2552.2950	80.1466
2552.5863	80.1141
2552.9253	80.1438
2553.2143	80.2543
2553.4893	80.2860
2553.7463	80.2603
2554.0101	80.1859
2554.2922	80.0921
2554.5923	80.0614
2554.9023	80.1181
2555.2093	80.2278
2555.4943	80.3341
2555.7873	80.4451
2556.0806	80.5912
2556.4089	80.7956
2556.7309	80.9381
2557.0049	81.0227
2557.3079	81.0680
2557.5759	81.0563
2557.8629	81.0869
2558.1469	81.1515
2558.4349	81.2880
2558.7019	81.4134
2558.9549	81.5417
2559.2119	81.6276
2559.4969	81.7457
2559.7949	81.8489
2560.1169	81.9357
2560.4249	81.9519
2560.6949	81.9441
2560.9709	81.9524
2561.2419	81.9695
2561.5299	81.9955
2561.8038	81.9660
2562.1108	81.9280
2562.3888	81.8223
2562.6688	81.7779
2562.9762	81.7381
2563.2902	81.6968
2563.5734	81.6671
2563.8754	81.6647
2564.1124	81.6903
2564.4010	81.7435
2564.6744	81.7789
2564.9716	81.7748
2565.2504	81.7871
2565.5114	81.8073
2565.8194	81.8869
2566.1308	81.9285
2566.4534	81.8977
2566.7384	81.8553
2567.0034	81.8240
2567.2600	81.8125
2567.5624	81.7880
2567.8514	81.6466
2568.1514	81.4425
2568.4964	81.3291
2568.8204	81.3635
2569.1374	81.4590
2569.4854	81.5349
2569.7889	81.4929
2570.0824	81.3851
2570.3394	81.2991
2570.6603	81.2539
2570.9484	81.2252
2571.2227	81.1585
2571.5174	81.0021
2571.7864	80.8843
2572.0823	80.7606
2572.3922	80.7550
2572.6974	80.7875
2572.9854	80.8306
2573.2932	80.8835
2573.5623	80.9635
2573.8776	81.1068
2574.1860	81.2812
2574.4726	81.4363
2574.7426	81.5154
2575.0446	81.4760
2575.3692	81.3881
2575.6602	81.3366
2575.9652	81.3238
2576.2332	81.3885
2576.5116	81.4754
2576.8296	81.5436
2577.0906	81.5744
2577.3756	81.6053
2577.6656	81.6124
2577.9816	81.6079
2578.2636	81.5790
2578.5736	81.5262
2578.8896	81.5170
2579.2136	81.6128
2579.5428	81.7539
2579.8229	81.8891
2580.1409	81.9531
2580.4199	82.0400
2580.6889	82.1012
2580.9926	82.1622
2581.2986	82.1358
2581.6000	82.0569
2581.9419	82.0059
2582.2279	82.0771
2582.5289	82.1998
2582.8259	82.3100
2583.1447	82.3360
2583.4457	82.2511
2583.7177	82.1144
2584.0017	81.9319
2584.2964	81.7093
2584.6060	81.5264
2584.8679	81.3492
2585.1497	81.2676
2585.4267	81.2412
2585.6927	81.2320
2585.9687	81.2308
2586.2137	81.2294
2586.5467	81.2745
2586.8327	81.3427
2587.1202	81.3443
2587.4037	81.3190
2587.7213	81.2369
2588.0118	81.1420
2588.3177	81.1039
2588.6377	81.0635
2588.9681	81.0152
2589.2811	80.9600
2589.5868	80.9318
2589.8471	80.9040
2590.1531	80.8576
2590.4642	80.7401
2590.7791	80.6361
2591.0301	80.6065
2591.3175	80.6034
2591.5651	80.6092
2591.8261	80.6352
2592.1221	80.6472
2592.4171	80.6609
2592.7211	80.6613
2592.9971	80.6321
2593.3028	80.5519
2593.5641	80.4365
2593.8761	80.2692
2594.1551	80.0527
2594.4491	79.8945
2594.7474	79.7575
2595.0204	79.7101
2595.3094	79.6973
2595.5594	79.6926
2595.8459	79.6522
2596.0944	79.5890
2596.3934	79.4191
2596.6634	79.2349
2596.9694	79.0763
2597.2480	78.8926
2597.5684	78.7629
2597.8254	78.5763
2598.1316	78.4463
2598.4106	78.3718
2598.6746	78.2987
2598.9654	78.2052
2599.2726	78.1175
2599.5437	78.0419
2599.8287	78.0477
2600.1407	78.0629
2600.4189	78.1130
2600.6967	78.1533
2600.9857	78.1425
2601.2709	78.0837
2601.5417	77.9869
2601.7857	77.9378
2602.0772	77.8534
2602.3377	77.7591
2602.6337	77.6426
2602.9014	77.4542
2603.2017	77.2243
2603.4484	76.9857
2603.7417	76.7682
2604.0097	76.6736
2604.2557	76.6049
2604.5532	76.4861
2604.8552	76.3279
2605.1562	76.2281
2605.4492	76.2046
2605.7582	76.3046
2606.0472	76.3871
2606.3292	76.4155
2606.6112	76.3737
2606.9102	76.2858
2607.2022	76.1931
2607.5092	76.1499
2607.8002	76.1065
2608.0712	76.0557
2608.3662	76.0003
2608.6502	75.9152
2608.9532	75.8642
2609.2752	75.8256
2609.5962	75.8686
2609.9022	75.8930
2610.1882	75.9748
2610.4802	76.0198
2610.7792	76.0534
2611.0587	76.0439
2611.3641	75.9983
2611.6611	75.9151
2611.9251	75.8672
2612.1991	75.8057
2612.4931	75.8150
2612.7711	75.8209
2613.0791	75.8028
2613.3931	75.7477
2613.7301	75.6926
2614.0241	75.6615
2614.3271	75.6365
2614.6351	75.5831
2614.9281	75.5207
2615.2291	75.4959
2615.5341	75.4868
2615.8231	75.5521
2616.1061	75.6154
2616.4321	75.7037
2616.7171	75.7557
2617.0201	75.8121
2617.3369	75.8729
2617.6521	75.9713
2617.9301	76.0670
2618.2270	76.2016
2618.5332	76.3383
2618.8222	76.4968
2619.1272	76.6292
2619.4582	76.6692
2619.8042	76.6821
2620.0985	76.6587
2620.3762	76.6916
2620.6472	76.7239
2620.9562	76.7979
2621.2528	76.9091
2621.5361	76.9785
2621.8142	77.0364
2622.1162	77.0874
2622.4152	77.1626
2622.7322	77.2491
2623.0152	77.3856
2623.3008	77.5233
2623.5737	77.5823
2623.8987	77.6100
2624.2177	77.5866
2624.5317	77.5599
2624.8407	77.6064
2625.1387	77.6747
2625.4297	77.7907
2625.7167	77.8796
2626.0367	77.9573
2626.3937	78.1015
2626.7457	78.2436
2627.0575	78.4310
2627.3808	78.6469
2627.6567	78.8421
2627.9615	78.9653
2628.3142	79.0370
2628.6571	79.0219
2629.0038	79.0089
2629.3029	79.0199
2629.6027	79.0751
2629.9327	79.1340
2630.2617	79.1683
2630.5803	79.2345
2630.8673	79.3163
2631.1672	79.3805
2631.4323	79.4527
2631.7128	79.5054
2632.0338	79.5289
2632.3146	79.5513
2632.6358	79.5497
2632.9348	79.5924
2633.2628	79.6411
2633.5735	79.7201
2633.8928	79.7820
2634.2048	79.8135
2634.5255	79.7900
2634.8455	79.6910
2635.1845	79.6186
2635.5183	79.6377
2635.8745	79.7505
2636.2205	79.8746
2636.4855	79.9937
2636.8035	80.0732
2637.0965	80.2285
2637.4355	80.3501
2637.7715	80.4000
2638.0975	80.4435
2638.4125	80.5008
2638.7305	80.6471
2639.0295	80.7200
2639.3865	80.7427
2639.7655	80.7189
2640.0935	80.7009
2640.4095	80.7452
2640.7625	80.8358
2641.1075	80.9286
2641.4046	80.9675
2641.7116	80.9131
2642.0196	80.7867
2642.3326	80.6485
2642.6576	80.6124
2642.9696	80.6638
2643.2466	80.7108
2643.5756	80.7045
2643.9320	80.5933
2644.2930	80.4179
2644.6270	80.3643
2644.9370	80.3305
2645.2840	80.3103
2645.6200	80.2477
2645.9470	80.2294
2646.2830	80.2843
2646.6470	80.4581
2647.0020	80.6209
2647.3510	80.7967
2647.7089	80.9191
2648.0660	80.9847
2648.4450	81.0538
2648.7690	81.0750
2649.0940	81.1089
2649.4120	81.1176
2649.7257	81.1491
2650.0720	81.1788
2650.3997	81.1788
2650.7747	81.1552
2651.1093	81.0627
2651.3837	80.9644
2651.7307	80.9816
2652.0447	81.0152
2652.3437	81.1406
2652.7147	81.2480
2653.0597	81.3033
2653.3937	81.3122
2653.7753	81.3401
2654.1177	81.3895
2654.4564	81.4692
2654.7907	81.5020
2655.1237	81.4342
2655.4376	81.3410
2655.7746	81.2706
2656.1306	81.2090
2656.4727	81.1745
2656.8209	81.1967
2657.1939	81.2776
2657.5496	81.4268
2657.9055	81.5652
2658.2395	81.6505
2658.5495	81.7924
2658.8755	81.9658
2659.2129	82.1298
2659.5655	82.2450
2659.9105	82.2225
2660.2033	82.1888
2660.5187	82.1897
2660.8705	82.2184
2661.1864	82.2708
2661.4994	82.3179
2661.8694	82.3411
2662.2044	82.3038
2662.5270	82.2255
2662.8274	82.1190
2663.1664	82.0008
2663.4634	81.8990
2663.7578	81.7348
2664.1318	81.6133
2664.4697	81.5300
2664.7907	81.5421
2665.0977	81.5949
2665.3867	81.6115
2665.7017	81.5893
2666.0437	81.5010
2666.3887	81.4041
2666.7030	81.4003
2666.9890	81.4038
2667.3280	81.4545
2667.6337	81.5498
2667.9638	81.5701
2668.2691	81.5697
2668.5910	81.5008
2668.9000	81.3852
2669.2220	81.2374
2669.5370	81.1130
2669.8850	80.9864
2670.2205	80.9433
2670.5585	80.9537
2670.8595	80.9884
2671.1896	81.0021
2671.5235	80.9899
2671.8315	80.9000
2672.1497	80.7516
2672.4595	80.5851
2672.7955	80.4193
2673.1045	80.3042
2673.4335	80.2424
2673.7355	80.2011
2674.0425	80.2216
2674.3565	80.2261
2674.6805	80.1504
2674.9995	80.0870
2675.3135	80.0618
2675.6186	80.0801
2675.9555	80.1285
2676.3085	80.1641
2676.6068	80.1658
2676.9115	80.1275
2677.2155	80.0899
2677.5358	80.0388
2677.8668	80.0235
2678.1608	80.0564
2678.4548	80.1218
2678.7548	80.2072
2679.0808	80.2242
2679.4018	80.1926
2679.7268	80.1004
2680.0668	80.0645
2680.3928	80.1277
2680.7008	80.2519
2681.0237	80.3268
2681.3248	80.3385
2681.6328	80.2701
2681.9500	80.2652
2682.2618	80.2691
2682.5698	80.2962
2682.8948	80.2922
2683.2200	80.2844
2683.5428	80.2927
2683.8808	80.3036
2684.2128	80.3373
2684.5028	80.3374
2684.8468	80.3054
2685.2268	80.1968
2685.5448	80.0461
2685.8638	79.9582
2686.1448	79.9011
2686.4188	79.8402
2686.7468	79.7817
2687.0858	79.7160
2687.3885	79.6777
2687.7081	79.6124
2688.0141	79.5568
2688.3440	79.4811
2688.6551	79.4418
2689.0073	79.4401
2689.3241	79.4522
2689.6721	79.4329
2690.0121	79.3615
2690.3331	79.3223
2690.6371	79.2592
2690.9471	79.1697
2691.2761	79.0630
2691.6241	78.9720
2691.9751	78.9505
2692.2871	78.9479
2692.6203	78.9049
2692.9632	78.8865
2693.3101	78.9103
2693.6615	78.9649
2693.9990	78.9580
2694.3621	78.8911
2694.7101	78.7445
2695.0451	78.6346
2695.3661	78.5606
2695.7031	78.5035
2696.0464	78.5286
2696.3491	78.5373
2696.6811	78.5776
2697.0230	78.6271
2697.3529	78.6639
2697.7118	78.6748
2698.0328	78.6843
2698.3748	78.6527
2698.6838	78.6162
2699.0128	78.5944
2699.3428	78.5808
2699.6828	78.5296
2699.9528	78.4614
2700.2546	78.3438
2700.5725	78.2785
2700.9315	78.3744
2701.2240	78.5538
2701.6035	78.6663
2701.9435	78.7090
2702.3197	78.7060
2702.6635	78.7392
2703.0315	78.7944
2703.3539	78.8271
2703.6939	78.8339
2704.0469	78.8319
2704.3592	78.8117
2704.6819	78.7838
2705.0069	78.7862
2705.3509	78.8320
2705.7009	78.9243
2706.0130	79.0128
2706.3501	79.0725
2706.6971	79.0878
2707.0651	79.1191
2707.3721	79.1384
2707.7252	79.1478
2708.0604	79.1047
2708.3506	79.0266
2708.6926	78.9448
2709.0102	78.8383
2709.3716	78.7089
2709.7224	78.6098
2710.0606	78.5381
2710.3756	78.4798
2710.7246	78.4506
2711.0756	78.4464
2711.4116	78.4442
2711.7886	78.4504
2712.0876	78.3704
2712.4056	78.2877
2712.7456	78.1968
2713.0956	78.1557
2713.4226	78.1701
2713.7466	78.1645
2714.0966	78.1614
2714.4826	78.2283
2714.8097	78.3747
2715.1461	78.5645
2715.4706	78.6666
2715.8286	78.7532
2716.1526	78.7214
2716.5086	78.6988
2716.7963	78.6121
2717.1116	78.4460
2717.4176	78.3066
2717.7166	78.1931
2718.0076	78.1160
2718.3191	78.0673
2718.6445	78.0426
2718.9835	78.0520
2719.3422	78.0598
2719.6785	78.0789
2720.0305	78.0288
2720.3690	78.0069
2720.7460	77.9861
2721.0795	77.9670
2721.4605	77.8824
2721.8295	77.8088
2722.1085	77.7301
2722.4275	77.7103
2722.7815	77.7384
2723.1275	77.7863
2723.4515	77.8834
2723.7395	77.9077
2724.1115	77.8710
2724.4415	77.8234
2724.7985	77.7964
2725.1845	77.7679
2725.5375	77.7383
2725.8915	77.6575
2726.2385	77.5535
2726.5815	77.5300
2726.9030	77.5424
2727.2555	77.5550
2727.5935	77.5074
2728.0193	77.4492
2728.3875	77.4005
2728.7375	77.3264
2729.0865	77.1934
2729.4275	77.1042
2729.7751	77.0760
2730.1405	77.0487
2730.4873	76.9973
2730.8045	76.9399
2731.1775	76.9691
2731.5562	77.0362
2731.8985	77.2265
2732.2405	77.4133
2732.6006	77.6445
2732.9299	77.8540
2733.2459	78.0128
2733.6219	78.0599
2734.0269	78.0386
2734.4149	78.0142
2734.7749	77.9878
2735.1669	77.9466
2735.5489	77.8709
2735.8869	77.7128
2736.2618	77.6417
2736.6187	77.6383
2737.0089	77.7641
2737.4009	77.8681
2737.7519	77.8981
2738.1089	77.9694
2738.5144	78.0645
2738.9159	78.1557
2739.3279	78.1238
2739.7369	78.0049
2740.1119	77.8473
2740.4829	77.7256
2740.8439	77.6888
2741.1529	77.7063
2741.5288	77.7827
2741.8777	77.8704
2742.2439	77.8199
2742.5989	77.6816
2742.9329	77.5061
2743.2659	77.4253
2743.6259	77.4093
2743.9419	77.4325
2744.3039	77.4462
2744.6534	77.4490
2745.0378	77.4688
2745.4175	77.4901
2745.7895	77.4855
2746.1655	77.4624
2746.5035	77.4574
2746.8905	77.5072
2747.2525	77.6101
2747.6138	77.7658
2747.9667	77.8749
2748.2977	77.8917
2748.6897	77.8008
2749.0707	77.6986
2749.4199	77.6442
2749.7387	77.5809
2750.0597	77.5690
2750.3867	77.5595
2750.7627	77.5955
2751.1837	77.6545
2751.5617	77.6159
2751.8811	77.5596
2752.2517	77.5152
2752.5717	77.4836
2752.9267	77.4183
2753.2767	77.3001
2753.6417	77.0500
2753.9687	76.8169
2754.3368	76.6274
2754.7107	76.5096
2755.0827	76.5019
2755.4137	76.5207
2755.7711	76.5985
2756.1361	76.6758
2756.5630	76.6828
2756.9540	76.7173
2757.3260	76.7855
2757.7009	76.8989
2758.0848	77.0820
2758.4792	77.1864
2758.8510	77.2723
2759.2250	77.2892
2759.5430	77.2010
2759.8960	77.1137
2760.2650	77.0075
2760.6423	76.9691
2761.0370	76.9257
2761.4140	76.8807
2761.7446	76.8330
2762.1222	76.8265
2762.4950	76.8632
2762.8580	76.8506
2763.2228	76.7940
2763.6090	76.7616
2763.9990	76.8654
2764.3540	77.0719
2764.7447	77.2496
2765.1050	77.2976
2765.4320	77.2358
2765.8130	77.1662
2766.1400	77.1179
2766.4570	77.1748
2766.8002	77.3104
2767.1380	77.4245
2767.4787	77.5691
2767.8317	77.6498
2768.1427	77.7584
2768.4667	77.8216
2768.7865	77.9118
2769.1587	77.9711
2769.4817	78.0236
2769.8137	78.1023
2770.1537	78.1689
2770.4937	78.1981
2770.8177	78.1329
2771.1935	78.0257
2771.5291	77.8848
2771.8737	77.8214
2772.1557	77.7409
2772.4867	77.6377
2772.8054	77.5290
2773.1597	77.3914
2773.5147	77.3595
2773.8257	77.3986
2774.1817	77.4488
2774.5217	77.4944
2774.8171	77.4031
2775.1637	77.2916
2775.5047	77.1396
2775.8357	77.0604
2776.1387	76.9643
2776.4707	76.8654
2776.8247	76.7134
2777.1797	76.5514
2777.4967	76.3475
2777.8227	76.1258
2778.1707	75.8668
2778.5017	75.5193
2778.8567	75.3096
2779.1967	75.0346
2779.5177	74.8888
2779.8917	74.7205
2780.2387	74.6058
2780.5627	74.5029
2780.9087	74.3914
2781.2685	74.2691
2781.5547	74.1870
2781.8555	74.0950
2782.1337	74.0407
2782.4487	73.9666
2782.7507	73.8665
2783.0727	73.7656
2783.3847	73.6684
2783.6787	73.5513
2783.9877	73.4151
2784.2847	73.2638
2784.5633	73.1452
2784.8479	72.9677
2785.1469	72.8478
2785.4696	72.7881
2785.7953	72.7151
2786.1010	72.6522
2786.4508	72.4419
2786.7545	72.2989
2787.1156	72.1052
2787.4456	71.9485
2787.8078	71.8334
2788.1286	71.7048
2788.4667	71.6211
2788.8207	71.5338
2789.1587	71.4883
2789.4547	71.4356
2789.7587	71.3147
2790.0637	71.1783
2790.3940	71.0523
2790.7524	70.9869
2791.0402	70.9244
2791.3388	70.8178
2791.6712	70.6879
2792.0032	70.5085
2792.3752	70.3375
2792.6942	70.1128
2793.0482	69.9502
2793.3792	69.7189
2793.7227	69.5637
2794.0855	69.4219
2794.3809	69.4482
2794.7331	69.5677
2795.0583	69.6775
2795.3605	69.7393
2795.6555	69.7472
2795.9735	69.7643
2796.2827	69.7968
2796.5908	69.8862
2796.9139	69.9724
2797.2409	70.1242
2797.5487	70.3407
2797.8877	70.5448
2798.1827	70.6993
2798.5297	70.7901
2798.8456	70.8252
2799.1757	70.8631
2799.4960	70.9198
2799.7960	70.8982
2800.1030	70.9012
2800.3978	70.8084
2800.7164	70.7268
2801.0330	70.6533
2801.3109	70.5565
2801.6296	70.4741
2801.9361	70.4118
2802.2573	70.4289
2802.5720	70.4662
2802.8345	70.5409
2803.1310	70.5355
2803.4496	70.5075
2803.7521	70.5532
2804.0841	70.6063
2804.4259	70.6707
2804.7377	70.5884
2805.0488	70.4318
2805.4558	70.2396
2805.7822	70.1184
2806.1092	69.9970
2806.3978	69.8310
2806.7539	69.7006
2807.0335	69.5739
2807.2867	69.4801
2807.5955	69.4421
2807.8702	69.4370
2808.1765	69.4891
2808.4809	69.5774
2808.7703	69.6477
2809.0491	69.6814
2809.3340	69.7219
2809.6718	69.7359
2809.9571	69.7477
2810.2612	69.7291
2810.5273	69.7231
2810.8469	69.6672
2811.1704	69.6068
2811.4580	69.5020
2811.7838	69.4084
2812.0603	69.3388
2812.3325	69.3059
2812.5793	69.3075
2812.8751	69.3413
2813.2187	69.3382
2813.5211	69.3391
2813.8294	69.3479
2814.1451	69.4059
2814.4563	69.4590
2814.7675	69.4433
2815.0611	69.4608
2815.3516	69.5311
2815.6849	69.6119
2815.9736	69.6898
2816.2887	69.7173
2816.5874	69.6806
2816.8904	69.6154
2817.2060	69.5487
2817.4896	69.3630
2817.7974	69.2029
2818.0745	68.9922
2818.3631	68.7773
2818.6118	68.6929
2818.9016	68.5812
2819.1942	68.5543
2819.4727	68.5895
2819.7371	68.6585
2820.0182	68.8236
2820.2742	68.9112
2820.5342	68.9391
2820.7946	69.0130
2821.0982	69.0570
2821.3627	69.1324
2821.6366	69.2237
2821.9258	69.2742
2822.2050	69.2933
2822.5002	69.2850
2822.7847	69.2956
2823.0270	69.3363
2823.3224	69.3302
2823.5804	69.3202
2823.8540	69.2462
2824.1144	69.1706
2824.4041	69.1882
2824.6946	69.2714
2825.0035	69.4219
2825.2750	69.5755
2825.5568	69.6288
2825.8199	69.6046
2826.0750	69.5177
2826.3165	69.4386
2826.5671	69.3784
2826.8723	69.3077
2827.1519	69.2214
2827.3904	69.2017
2827.6429	69.1664
2827.9154	69.0989
2828.1462	69.0562
2828.4150	68.9747
2828.6635	68.8897
2828.9561	68.8114
2829.2211	68.7340
2829.4652	68.6262
2829.7425	68.5397
2830.0148	68.4344
2830.2380	68.3819
2830.5159	68.3655
2830.8180	68.4002
2831.0861	68.4298
2831.3567	68.4541
2831.5811	68.4590
2831.8230	68.4674
2832.0925	68.4827
2832.4009	68.5421
2832.7301	68.6079
2833.0094	68.7362
2833.2770	68.7881
2833.5551	68.7964
2833.8211	68.7907
2834.0635	68.7782
2834.3562	68.7546
2834.6426	68.6915
2834.9238	68.6351
2835.1920	68.6011
2835.4700	68.5914
2835.7552	68.6233
2836.0390	68.6207
2836.2907	68.6473
2836.5466	68.6107
2836.8068	68.5344
2837.0831	68.3853
2837.3368	68.2536
2837.6473	68.1365
2837.9166	68.0758
2838.1871	68.0742
2838.4685	68.1453
2838.7166	68.1768
2838.9922	68.1566
2839.2521	68.0860
2839.5204	68.0424
2839.7808	68.0619
2840.0486	68.1354
2840.3040	68.2183
2840.6004	68.2973
2840.8585	68.3822
2841.1423	68.3784
2841.3971	68.3759
2841.6751	68.3776
2841.9570	68.3765
2842.2442	68.4302
2842.5047	68.4685
2842.7600	68.4690
2843.0227	68.4441
2843.2627	68.3653
2843.5341	68.3356
2843.7590	68.4305
2844.0254	68.5782
2844.2560	68.7081
2844.5481	68.7051
2844.8299	68.5486
2845.0740	68.4107
2845.3100	68.2531
2845.5603	68.1820
2845.8410	68.1716
2846.1011	68.1959
2846.3589	68.2074
2846.6094	68.2057
2846.8268	68.1559
2847.0740	68.0785
2847.3480	68.0440
2847.5946	67.9911
2847.8420	67.9372
2848.0977	67.8869
2848.3464	67.8572
2848.6102	67.8650
2848.8480	67.9076
2849.1057	67.9163
2849.3512	67.9216
2849.6398	67.8913
2849.9242	67.8219
2850.1648	67.7596
2850.3920	67.6914
2850.6173	67.6658
2850.8409	67.6574
2851.0628	67.6575
2851.2829	67.6841
2851.5015	67.6981
2851.7185	67.7160
2851.9340	67.7475
2852.1480	67.7304
2852.3605	67.7003
2852.5717	67.6525
2852.7816	67.6122
2852.9901	67.6026
2853.1974	67.5646
2853.4034	67.5041
2853.6082	67.3917
2853.8119	67.3127
2854.0145	67.2691
2854.2160	67.2652
2854.4165	67.2961
2854.6159	67.3094
2854.8144	67.3874
2855.0119	67.4536
2855.2085	67.5076
2855.4042	67.5736
2855.5990	67.5159
2855.7930	67.4882
2855.9862	67.4592
2856.1786	67.4960
2856.3703	67.5505
2856.5613	67.5896
2856.7515	67.5936
2856.9411	67.5816
2857.1301	67.6090
2857.3184	67.6766
2857.5061	67.7779
2857.6932	67.8831
2857.8798	67.9712
2858.0659	68.0667
2858.2514	68.1259
2858.4364	68.2026
2858.6210	68.2525
2858.8052	68.2873
2858.9889	68.3432
2859.1722	68.4071
2859.3551	68.4551
2859.5376	68.4432
2859.7198	68.4429
2859.9017	68.4601
2860.0832	68.4882
2860.2645	68.5088
2860.4454	68.5188
2860.6261	68.5235
2860.8066	68.5255
2860.9868	68.5284
2861.1668	68.5382
2861.3467	68.5545
2861.5263	68.5715
2861.7058	68.5888
2861.8851	68.6129
2862.0643	68.6457
2862.2434	68.6750
2862.4224	68.6875
2862.6013	68.6842
2862.7801	68.6772
2862.9589	68.6684
2863.1376	68.6661
2863.3163	68.6708
2863.4950	68.6789
2863.6736	68.6899
2863.8523	68.7029
2864.0309	68.7152
2864.2097	68.7298
2864.3884	68.7443
2864.5672	68.7626
2864.7461	68.7821
2864.9251	68.7984
2865.1042	68.8052
2865.2834	68.8144
2865.4627	68.8289
2865.6421	68.8482
2865.8217	68.8752
2866.0015	68.9002
2866.1814	68.9244
2866.3615	68.9471
2866.5418	68.9745
2866.7223	69.0010
2866.9030	69.0309
2867.0839	69.0578
2867.2651	69.0785
2867.4465	69.1005
2867.6282	69.1348
2867.8102	69.1874
2867.9924	69.2480
2868.1749	69.3182
2868.3577	69.3738
2868.5408	69.4232
2868.7243	69.4668
2868.9081	69.5145
2869.0922	69.5548
2869.2766	69.5897
2869.4614	69.6211
2869.6466	69.6533
2869.8322	69.6928
2870.0182	69.7307
2870.2045	69.7729
2870.3913	69.8242
2870.5784	69.8623
2870.7660	69.9007
2870.9540	69.9194
2871.1425	69.9203
2871.3314	69.9116
2871.5208	69.8971
2871.7106	69.8753
2871.9009	69.8658
2872.0917	69.8705
2872.2830	69.8911
2872.4747	69.9147
2872.6670	69.9505
2872.8598	69.9875
2873.0531	70.0185
2873.2469	70.0532
2873.4412	70.0812
2873.6361	70.1008
2873.8316	70.1294
2874.0275	70.1600
2874.2241	70.2041
2874.4212	70.2444
2874.6189	70.2978
2874.8171	70.3517
2875.0160	70.4154
2875.2154	70.5019
2875.4154	70.5771
2875.6160	70.6542
2875.8172	70.7252
2876.0191	70.7983
2876.2215	70.8523
2876.4245	70.9096
2876.6282	70.9688
2876.8325	71.0424
2877.0374	71.1105
2877.2430	71.1851
2877.4492	71.2670
2877.6560	71.3768
2877.8635	71.4733
2878.0716	71.5635
2878.2803	71.6463
2878.4897	71.7387
2878.6998	71.8114
2878.9105	71.8790
2879.1218	71.9386
2879.3338	71.9973
2879.5464	72.0417
2879.7598	72.0864
2879.9737	72.1395
2880.1883	72.1818
2880.4036	72.2218
2880.6195	72.2572
2880.8361	72.2914
2881.0533	72.3114
2881.2711	72.3230
2881.4897	72.3254
2881.7088	72.3245
2881.9286	72.3262
2882.1490	72.3307
2882.3701	72.3344
2882.5918	72.3348
2882.8141	72.3341
2883.0370	72.3333
2883.2605	72.3345
2883.4847	72.3450
2883.7094	72.3658
2883.9348	72.3961
2884.1607	72.4442
2884.3872	72.4924
2884.6143	72.5402
2884.8420	72.5869
2885.0702	72.6340
2885.2989	72.6942
2885.5282	72.7471
2885.7580	72.8003
2885.9883	72.8537
2886.2191	72.9085
2886.4504	72.9653
2886.6822	73.0257
2886.9144	73.0915
2887.1471	73.1467
2887.3803	73.2104
2887.6138	73.2664
2887.8478	73.3136
2888.0821	73.3495
2888.3168	73.3697
2888.5519	73.3915
2888.7874	73.4106
2889.0231	73.4216
2889.2592	73.4259
2889.4956	73.4196
2889.7322	73.4137
2889.9691	73.4111
2890.2063	73.4086
2890.4437	73.4045
2890.6812	73.3990
2890.9190	73.3977
2891.1569	73.4011
2891.3949	73.4071
2891.6331	73.4136
2891.8713	73.4214
2892.1096	73.4326
2892.3480	73.4472
2892.5864	73.4575
2892.8248	73.4627
2893.0631	73.4657
2893.3014	73.4681
2893.5397	73.4734
2893.7778	73.4850
2894.0158	73.5023
2894.2537	73.5181
2894.4913	73.5293
2894.7288	73.5276
2894.9660	73.5104
2895.2030	73.4801
2895.4397	73.4375
2895.6761	73.3918
2895.9121	73.3487
2896.1477	73.3046
2896.3830	73.2779
2896.6178	73.2549
2896.8522	73.2294
2897.0862	73.1942
2897.3196	73.1602
2897.5526	73.1262
2897.7850	73.0963
2898.0169	73.0828
2898.2482	73.0812
2898.4790	73.0874
2898.7092	73.0960
2898.9388	73.1079
2899.1678	73.1282
2899.3962	73.1542
2899.6240	73.1675
2899.8512	73.1891
2900.0778	73.2324
2900.3037	73.2674
2900.5290	73.2981
2900.7536	73.3181
2900.9776	73.3361
2901.2010	73.3399
2901.4238	73.3319
2901.6459	73.3340
2901.8674	73.3489
2902.0882	73.3573
2902.3084	73.3631
2902.5280	73.3761
2902.7470	73.3940
2902.9654	73.4062
2903.1832	73.4110
2903.4005	73.4182
2903.6171	73.4318
2903.8332	73.4493
2904.0487	73.4787
2904.2637	73.5309
2904.4781	73.5992
2904.6921	73.6587
2904.9055	73.7191
2905.1184	73.7705
2905.3309	73.8227
2905.5429	73.8705
2905.7545	73.9149
2905.9657	73.9649
2906.1764	74.0208
2906.3868	74.0802
2906.5969	74.1303
2906.8065	74.1916
2907.0159	74.2481
2907.2250	74.2979
2907.4338	74.3369
2907.6423	74.3712
2907.8507	74.4062
2908.0588	74.4591
2908.2667	74.5079
2908.4745	74.5488
2908.6822	74.5803
2908.8898	74.6207
2909.0973	74.6576
2909.3048	74.6823
2909.5122	74.6925
2909.7197	74.6998
2909.9273	74.7008
2910.1349	74.6949
2910.3427	74.6848
2910.5505	74.6688
2910.7586	74.6597
2910.9668	74.6582
2911.1753	74.6536
2911.3840	74.6438
2911.5930	74.6381
2911.8023	74.6412
2912.0119	74.6473
2912.2219	74.6541
2912.4322	74.6601
2912.6429	74.6642
2912.8541	74.6657
2913.0657	74.6623
2913.2778	74.6504
2913.4905	74.6345
2913.7036	74.6250
2913.9172	74.6215
2914.1315	74.6181
2914.3463	74.6136
2914.5618	74.6065
2914.7778	74.5962
2914.9946	74.5851
2915.2120	74.5799
2915.4301	74.5810
2915.6490	74.5819
2915.8686	74.5806
2916.0889	74.5835
2916.3100	74.5982
2916.5320	74.6233
2916.7547	74.6465
2916.9783	74.6668
2917.2028	74.6841
2917.4282	74.6972
2917.6544	74.7085
2917.8816	74.7250
2918.1097	74.7425
2918.3387	74.7722
2918.5687	74.8114
2918.7997	74.8533
2919.0317	74.8781
2919.2647	74.8979
2919.4987	74.9148
2919.7338	74.9294
2919.9700	74.9474
2920.2072	74.9607
2920.4455	74.9677
2920.6849	74.9802
2920.9254	75.0052
2921.1671	75.0394
2921.4098	75.0679
2921.6537	75.1053
2921.8988	75.1381
2922.1450	75.1618
2922.3924	75.1748
2922.6410	75.1890
2922.8907	75.2004
2923.1417	75.2100
2923.3938	75.2183
2923.6471	75.2226
2923.9017	75.2222
2924.1574	75.2161
2924.4144	75.2066
2924.6725	75.1981
2924.9319	75.1853
2925.1924	75.1626
2925.4542	75.1285
2925.7171	75.0949
2925.9812	75.0647
2926.2465	75.0385
2926.5130	75.0203
2926.7806	74.9982
2927.0494	74.9688
2927.3193	74.9305
2927.5904	74.8885
2927.8626	74.8442
2928.1358	74.7996
2928.4102	74.7797
2928.6856	74.7662
2928.9621	74.7475
2929.2396	74.7314
2929.5182	74.7341
2929.7977	74.7569
2930.0782	74.7745
2930.3597	74.7901
2930.6420	74.8035
2930.9253	74.8171
2931.2094	74.8298
2931.4944	74.8451
2931.7801	74.8661
2932.0666	74.8970
2932.3539	74.9165
2932.6419	74.9272
2932.9305	74.9256
2933.2198	74.9124
2933.5097	74.8884
2933.8002	74.8674
2934.0912	74.8495
2934.3828	74.8390
2934.6748	74.8312
2934.9674	74.8308
2935.2603	74.8437
2935.5537	74.8588
2935.8474	74.8696
2936.1415	74.8807
2936.4359	74.9018
2936.7307	74.9604
2937.0256	75.0063
2937.3208	75.0329
2937.6163	75.0466
2937.9119	75.0720
2938.2077	75.1151
2938.5036	75.1770
2938.7996	75.2224
2939.0956	75.2580
2939.3918	75.2892
2939.6880	75.3178
2939.9841	75.3575
2940.2803	75.3939
2940.5764	75.4432
2940.8724	75.5218
2941.1683	75.5850
2941.4641	75.6550
2941.7597	75.7085
2942.0552	75.7645
2942.3505	75.8043
2942.6457	75.8425
2942.9405	75.8865
2943.2352	75.9262
2943.5296	75.9531
2943.8237	75.9856
2944.1175	76.0248
2944.4111	76.0820
2944.7042	76.1351
2944.9971	76.1544
2945.2896	76.1650
2945.5817	76.1723
2945.8734	76.1759
2946.1648	76.1832
2946.4557	76.1915
2946.7462	76.1845
2947.0362	76.1885
2947.3258	76.2000
2947.6150	76.1977
2947.9036	76.1972
2948.1918	76.2121
2948.4795	76.2491
2948.7667	76.3040
2949.0533	76.3650
2949.3395	76.4166
2949.6251	76.5045
2949.9101	76.5963
2950.1947	76.6621
2950.4786	76.7402
2950.7620	76.8585
2951.0449	76.9765
2951.3271	77.0884
2951.6088	77.1928
2951.8899	77.3009
2952.1704	77.4420
2952.4503	77.5709
2952.7296	77.6984
2953.0083	77.8290
2953.2863	77.9479
2953.5638	78.0571
2953.8406	78.1502
2954.1168	78.2324
2954.3924	78.3115
2954.6673	78.4034
2954.9417	78.4980
2955.2153	78.5866
2955.4884	78.6689
2955.7608	78.7410
2956.0326	78.7879
2956.3037	78.8314
2956.5742	78.8561
2956.8440	78.8791
2957.1132	78.9152
2957.3817	78.9293
2957.6496	78.9087
2957.9169	78.8731
2958.1835	78.8110
2958.4494	78.7509
2958.7147	78.6875
2958.9794	78.6102
2959.2434	78.5225
2959.5067	78.4655
2959.7695	78.4289
2960.0315	78.4091
2960.2930	78.3969
2960.5538	78.3990
2960.8139	78.4193
2961.0735	78.4402
2961.3324	78.4582
2961.5906	78.4758
2961.8483	78.4900
2962.1053	78.4966
2962.3617	78.5013
2962.6174	78.5076
2962.8726	78.5074
2963.1271	78.4974
2963.3810	78.4714
2963.6343	78.4338
2963.8871	78.4071
2964.1392	78.3955
2964.3907	78.3941
2964.6416	78.4004
2964.8920	78.4007
2965.1417	78.4033
2965.3909	78.4202
2965.6395	78.4419
2965.8876	78.4628
2966.1351	78.4802
2966.3820	78.4933
2966.6284	78.5010
2966.8742	78.5044
2967.1195	78.5060
2967.3642	78.5003
2967.6085	78.4749
2967.8522	78.4465
2968.0953	78.4181
2968.3380	78.3914
2968.5802	78.3494
2968.8219	78.2959
2969.0630	78.2517
2969.3037	78.1913
2969.5440	78.1141
2969.7837	78.0472
2970.0230	77.9764
2970.2618	77.9301
2970.5002	77.8896
2970.7381	77.8483
2970.9757	77.8302
2971.2127	77.8278
2971.4494	77.8237
2971.6856	77.8085
2971.9215	77.7933
2972.1569	77.7927
2972.3919	77.7973
2972.6266	77.7836
2972.8608	77.7395
2973.0947	77.7090
2973.3282	77.6960
2973.5614	77.6892
2973.7942	77.6824
2974.0267	77.6721
2974.2588	77.6492
2974.4905	77.6204
2974.7220	77.5758
2974.9531	77.4971
2975.1839	77.4284
2975.4143	77.3430
2975.6445	77.2623
2975.8743	77.1589
2976.1039	77.0066
2976.3332	76.8930
2976.5621	76.7610
2976.7908	76.6455
2977.0193	76.4800
2977.2474	76.3005
2977.4753	76.1509
2977.7029	75.9567
2977.9303	75.7537
2978.1574	75.5686
2978.3842	75.4059
2978.6109	75.2525
2978.8373	75.0902
2979.0634	74.9273
2979.2894	74.7900
2979.5151	74.6782
2979.7406	74.5753
2979.9659	74.4797
2980.1910	74.3878
2980.4158	74.3008
2980.6405	74.2230
2980.8650	74.1571
2981.0893	74.0961
2981.3135	74.0341
2981.5374	73.9667
2981.7612	73.8908
2981.9848	73.8250
2982.2083	73.7829
2982.4316	73.7471
2982.6547	73.6993
2982.8777	73.6466
2983.1006	73.6012
2983.3233	73.5614
2983.5459	73.5246
2983.7683	73.4914
2983.9906	73.4580
2984.2128	73.4239
2984.4349	73.3955
2984.6569	73.3752
2984.8787	73.3574
2985.1005	73.3388
2985.3221	73.3156
2985.5437	73.2854
2985.7651	73.2526
2985.9865	73.2246
2986.2078	73.1999
2986.4290	73.1718
2986.6501	73.1405
2986.8712	73.1119
2987.0922	73.0866
2987.3131	73.0588
2987.5340	73.0251
2987.7548	72.9858
2987.9756	72.9413
2988.1963	72.8948
2988.4170	72.8524
2988.6376	72.8118
2988.8582	72.7637
2989.0788	72.6984
2989.2994	72.6461
2989.5199	72.5959
2989.7404	72.5473
2989.9609	72.4914
2990.1814	72.4494
2990.4018	72.4120
2990.6223	72.3805
2990.8428	72.3566
2991.0633	72.3288
2991.2837	72.2996
2991.5042	72.2716
2991.7247	72.2543
2991.9453	72.2446
2992.1658	72.2382
2992.3864	72.2344
2992.6070	72.2438
2992.8277	72.2723
2993.0484	72.2986
2993.2691	72.3255
2993.4899	72.3508
2993.7107	72.3774
2993.9315	72.3994
2994.1525	72.4226
2994.3735	72.4513
2994.5945	72.4984
2994.8156	72.5369
2995.0368	72.5642
2995.2581	72.5828
2995.4794	72.6106
2995.7009	72.6403
2995.9224	72.6763
2996.1440	72.7189
2996.3656	72.7663
2996.5874	72.8277
2996.8093	72.8743
2997.0313	72.9131
2997.2534	72.9412
2997.4756	72.9582
2997.6979	72.9635
2997.9203	72.9655
2998.1428	72.9700
2998.3654	72.9839
2998.5882	73.0101
2998.8111	73.0641
2999.0341	73.1232
2999.2573	73.1730
2999.4806	73.2179
2999.7040	73.2477
2999.9276	73.2773
3000.1513	73.3053
3000.3752	73.3481
3000.5992	73.3921
3000.8234	73.4426
3001.0478	73.5052
3001.2723	73.5584
3001.4970	73.6200
3001.7218	73.6666
3001.9468	73.7095
3002.1721	73.7583
3002.3975	73.8022
3002.6230	73.8537
3002.8488	73.9219
3003.0748	73.9779
3003.3009	74.0331
3003.5273	74.0877
3003.7538	74.1555
3003.9806	74.2210
3004.2076	74.2970
3004.4347	74.3814
3004.6621	74.4916
3004.8898	74.5817
3005.1176	74.6672
3005.3457	74.7585
3005.5740	74.8221
3005.8025	74.8795
3006.0313	74.9502
3006.2603	75.0099
3006.4895	75.0672
3006.7190	75.1348
3006.9487	75.1972
3007.1787	75.2767
3007.4089	75.3479
3007.6394	75.3958
3007.8701	75.4306
3008.1011	75.4470
3008.3324	75.4710
3008.5639	75.5024
3008.7956	75.5371
3009.0277	75.5845
3009.2599	75.6286
3009.4925	75.6653
3009.7253	75.7159
3009.9583	75.7724
3010.1916	75.8307
3010.4252	75.8819
3010.6591	75.9146
3010.8932	75.9616
3011.1275	76.0327
3011.3622	76.1225
3011.5971	76.2249
3011.8323	76.3166
3012.0677	76.4336
3012.3034	76.5538
3012.5394	76.6560
3012.7757	76.7781
3013.0122	76.9017
3013.2491	77.0116
3013.4861	77.1290
3013.7235	77.2737
3013.9611	77.3956
3014.1990	77.5177
3014.4372	77.6390
3014.6756	77.7475
3014.9144	77.8590
3015.1533	77.9651
3015.3926	78.0864
3015.6321	78.2002
3015.8719	78.3131
3016.1120	78.4274
3016.3523	78.5440
3016.5929	78.6548
3016.8338	78.7500
3017.0749	78.8338
3017.3163	78.9135
3017.5579	78.9874
3017.7998	79.0583
3018.0419	79.1118
3018.2843	79.1788
3018.5270	79.2478
3018.7699	79.3081
3019.0131	79.3502
3019.2565	79.3701
3019.5001	79.3811
3019.7440	79.3845
3019.9881	79.3781
3020.2325	79.3629
3020.4771	79.3420
3020.7219	79.3238
3020.9669	79.3334
3021.2121	79.3564
3021.4576	79.3869
3021.7033	79.4134
3021.9491	79.4413
3022.1952	79.4741
3022.4415	79.5296
3022.6879	79.5794
3022.9345	79.6229
3023.1814	79.6683
3023.4284	79.7343
3023.6755	79.7959
3023.9229	79.8615
3024.1704	79.9280
3024.4180	79.9914
3024.6658	80.0552
3024.9138	80.1251
3025.1619	80.2057
3025.4101	80.3100
3025.6585	80.4269
3025.9070	80.5263
3026.1556	80.6094
3026.4043	80.6879
3026.6531	80.7491
3026.9020	80.8230
3027.1510	80.8936
3027.4001	80.9727
3027.6493	81.0447
3027.8986	81.1315
3028.1479	81.2048
3028.3973	81.2566
3028.6468	81.2778
3028.8963	81.2851
3029.1458	81.2863
3029.3953	81.2849
3029.6449	81.2848
3029.8945	81.2840
3030.1442	81.2852
3030.3938	81.2885
3030.6434	81.2871
3030.8930	81.2790
3031.1426	81.2513
3031.3921	81.1998
3031.6416	81.1570
3031.8911	81.1162
3032.1405	81.0852
3032.3898	81.0615
3032.6391	81.0392
3032.8883	81.0142
3033.1373	80.9865
3033.3863	80.9608
3033.6352	80.9415
3033.8840	80.9281
3034.1326	80.9138
3034.3811	80.8915
3034.6294	80.8715
3034.8776	80.8675
3035.1256	80.8676
3035.3735	80.8578
3035.6211	80.8438
3035.8686	80.8285
3036.1159	80.8164
3036.3629	80.8143
3036.6097	80.8165
3036.8563	80.8198
3037.1026	80.8255
3037.3486	80.8308
3037.5944	80.8421
3037.8399	80.8617
3038.0852	80.8752
3038.3301	80.8772
3038.5747	80.8921
3038.8190	80.9159
3039.0629	80.9574
3039.3065	81.0170
3039.5498	81.0933
3039.7927	81.1744
3040.0352	81.2400
3040.2773	81.3136
3040.5190	81.3770
3040.7603	81.4221
3041.0012	81.4699
3041.2417	81.5073
3041.4817	81.5552
3041.7212	81.5963
3041.9603	81.6522
3042.1989	81.6994
3042.4370	81.7568
3042.6747	81.8006
3042.9118	81.8516
3043.1484	81.8888
3043.3844	81.9233
3043.6199	81.9405
3043.8549	81.9552
3044.0893	81.9623
3044.3232	81.9689
3044.5564	81.9773
3044.7891	81.9869
3045.0212	82.0059
3045.2527	82.0231
3045.4836	82.0293
3045.7138	82.0344
3045.9435	82.0274
3046.1726	82.0007
3046.4010	81.9612
3046.6288	81.9097
3046.8560	81.8656
3047.0826	81.8099
3047.3085	81.7629
3047.5338	81.7407
3047.7585	81.7234
3047.9825	81.7059
3048.2059	81.6992
3048.4287	81.6933
3048.6508	81.6815
3048.8723	81.6693
3049.0931	81.6520
3049.3134	81.6491
3049.5330	81.6668
3049.7519	81.7049
3049.9703	81.7468
3050.1880	81.7832
3050.4051	81.8275
3050.6215	81.8688
3050.8374	81.9001
3051.0527	81.9373
3051.2673	81.9654
3051.4813	81.9820
3051.6948	81.9875
3051.9076	81.9827
3052.1199	81.9682
3052.3315	81.9610
3052.5426	81.9582
3052.7531	81.9538
3052.9631	81.9447
3053.1725	81.9301
3053.3813	81.8988
3053.5896	81.8530
3053.7973	81.7932
3054.0045	81.7227
3054.2112	81.6644
3054.4173	81.5888
3054.6229	81.5242
3054.8280	81.4735
3055.0327	81.4420
3055.2368	81.4140
3055.4404	81.3819
3055.6436	81.3429
3055.8463	81.2983
3056.0485	81.2507
3056.2503	81.2029
3056.4517	81.1675
3056.6526	81.1461
3056.8531	81.1400
3057.0532	81.1436
3057.2529	81.1483
3057.4522	81.1492
3057.6512	81.1443
3057.8497	81.1319
3058.0479	81.1137
3058.2458	81.0966
3058.4433	81.0817
3058.6405	81.0753
3058.8374	81.0795
3059.0339	81.0879
3059.2302	81.1006
3059.4262	81.1159
3059.6220	81.1320
3059.8174	81.1473
3060.0127	81.1666
3060.2077	81.1881
3060.4025	81.2211
3060.5970	81.2513
3060.7914	81.2768
3060.9856	81.3036
3061.1797	81.3368
3061.3736	81.3684
3061.5673	81.4124
3061.7610	81.4615
3061.9545	81.5085
3062.1479	81.5476
3062.3412	81.5768
3062.5345	81.5918
3062.7277	81.5993
3062.9209	81.5992
3063.1141	81.5944
3063.3073	81.5845
3063.5004	81.5717
3063.6936	81.5544
3063.8869	81.5327
3064.0802	81.5078
3064.2735	81.4798
3064.4670	81.4460
3064.6606	81.4056
3064.8543	81.3628
3065.0481	81.3213
3065.2422	81.2813
3065.4364	81.2379
3065.6307	81.1802
3065.8254	81.1371
3066.0202	81.1053
3066.2153	81.0832
3066.4106	81.0631
3066.6063	81.0454
3066.8022	81.0318
3066.9985	81.0225
3067.1950	81.0185
3067.3920	81.0229
3067.5892	81.0376
3067.7869	81.0514
3067.9849	81.0545
3068.1833	81.0481
3068.3821	81.0438
3068.5813	81.0447
3068.7810	81.0486
3068.9810	81.0520
3069.1816	81.0534
3069.3825	81.0510
3069.5840	81.0465
3069.7859	81.0381
3069.9882	81.0292
3070.1911	81.0199
3070.3944	81.0138
3070.5983	81.0138
3070.8026	81.0203
3071.0075	81.0234
3071.2128	81.0100
3071.4187	80.9825
3071.6251	80.9550
3071.8320	80.9340
3072.0394	80.9048
3072.2473	80.8646
3072.4557	80.8134
3072.6647	80.7648
3072.8742	80.7321
3073.0842	80.6979
3073.2947	80.6664
3073.5057	80.6384
3073.7172	80.6129
3073.9292	80.5909
3074.1417	80.5610
3074.3546	80.5189
3074.5681	80.4590
3074.7819	80.4023
3074.9963	80.3395
3075.2110	80.2860
3075.4262	80.2380
3075.6418	80.1989
3075.8578	80.1487
3076.0743	80.0954
3076.2911	80.0362
3076.5083	79.9741
3076.7258	79.9202
3076.9437	79.8854
3077.1619	79.8452
3077.3805	79.7999
3077.5994	79.7510
3077.8186	79.7105
3078.0381	79.6810
3078.2578	79.6537
3078.4779	79.6183
3078.6982	79.5849
3078.9187	79.5420
3079.1395	79.4996
3079.3605	79.4558
3079.5817	79.4062
3079.8032	79.3377
3080.0248	79.2788
3080.2466	79.2183
3080.4685	79.1550
3080.6907	79.0880
3080.9129	79.0050
3081.1353	78.9380
3081.3578	78.8587
3081.5804	78.7835
3081.8031	78.6821
3082.0259	78.6098
3082.2488	78.5463
3082.4717	78.4934
3082.6946	78.4470
3082.9176	78.4115
3083.1406	78.3732
3083.3637	78.3451
3083.5867	78.3159
3083.8097	78.2904
3084.0327	78.2737
3084.2556	78.2575
3084.4785	78.2433
3084.7014	78.2344
3084.9241	78.2300
3085.1468	78.2342
3085.3694	78.2501
3085.5918	78.2751
3085.8141	78.3254
3086.0363	78.3833
3086.2584	78.4681
3086.4802	78.5524
3086.7019	78.6535
3086.9235	78.7910
3087.1448	78.8945
3087.3659	78.9861
3087.5868	79.0751
3087.8075	79.1646
3088.0279	79.2691
3088.2481	79.3981
3088.4680	79.5159
3088.6876	79.6218
3088.9070	79.7146
3089.1260	79.7989
3089.3448	79.8746
3089.5632	79.9430
3089.7813	80.0019
3089.9991	80.0421
3090.2165	80.0613
3090.4336	80.0729
3090.6503	80.0893
3090.8666	80.1116
3091.0826	80.1409
3091.2981	80.1747
3091.5133	80.2020
3091.7281	80.2250
3091.9425	80.2414
3092.1565	80.2554
3092.3700	80.2629
3092.5832	80.2653
3092.7959	80.2666
3093.0082	80.2666
3093.2200	80.2732
3093.4314	80.2912
3093.6424	80.3155
3093.8530	80.3426
3094.0631	80.3715
3094.2728	80.4024
3094.4820	80.4360
3094.6907	80.4674
3094.8991	80.4962
3095.1070	80.5330
3095.3144	80.5818
3095.5214	80.6413
3095.7279	80.7154
3095.9340	80.8108
3096.1397	80.8995
3096.3449	81.0234
3096.5496	81.1376
3096.7540	81.2126
3096.9579	81.2917
3097.1613	81.3709
3097.3644	81.4353
3097.5670	81.5108
3097.7692	81.5636
3097.9709	81.6255
3098.1723	81.6832
3098.3732	81.7649
3098.5737	81.8370
3098.7739	81.8808
3098.9736	81.9154
3099.1729	81.9231
3099.3719	81.9046
3099.5704	81.8779
3099.7686	81.8383
3099.9664	81.8036
3100.1639	81.7707
3100.3610	81.7546
3100.5577	81.7400
3100.7541	81.7260
3100.9502	81.7053
3101.1459	81.6892
3101.3413	81.6806
3101.5364	81.6637
3101.7312	81.6399
3101.9256	81.5972
3102.1198	81.5454
3102.3137	81.4964
3102.5073	81.4621
3102.7007	81.4214
3102.8938	81.3834
3103.0867	81.3441
3103.2793	81.3022
3103.4717	81.2579
3103.6638	81.2174
3103.8558	81.1821
3104.0475	81.1474
3104.2390	81.1130
3104.4304	81.0782
3104.6215	81.0416
3104.8125	80.9982
3105.0033	80.9605
3105.1939	80.9208
3105.3844	80.8811
3105.5748	80.8417
3105.7650	80.8042
3105.9550	80.7674
3106.1449	80.7436
3106.3347	80.7265
3106.5244	80.7160
3106.7140	80.7080
3106.9035	80.6967
3107.0928	80.6865
3107.2821	80.6781
3107.4713	80.6728
3107.6604	80.6759
3107.8494	80.6899
3108.0384	80.7088
3108.2272	80.7208
3108.4160	80.7249
3108.6048	80.7383
3108.7935	80.7647
3108.9822	80.7939
3109.1708	80.8120
3109.3594	80.8212
3109.5479	80.8282
3109.7364	80.8347
3109.9249	80.8419
3110.1133	80.8531
3110.3018	80.8736
3110.4902	80.8886
3110.6786	80.8928
3110.8670	80.8860
3111.0554	80.8708
3111.2438	80.8441
3111.4322	80.8283
3111.6206	80.8209
3111.8091	80.8064
3111.9975	80.7804
3112.1859	80.7482
3112.3744	80.7302
3112.5629	80.7360
3112.7514	80.7481
3112.9399	80.7573
3113.1285	80.7655
3113.3171	80.7693
3113.5057	80.7689
3113.6943	80.7593
3113.8830	80.7432
3114.0717	80.7214
3114.2605	80.6873
3114.4493	80.6507
3114.6382	80.6177
3114.8271	80.5941
3115.0160	80.5892
3115.2050	80.5965
3115.3940	80.6210
3115.5831	80.6340
3115.7722	80.6308
3115.9614	80.6118
3116.1506	80.5986
3116.3399	80.5885
3116.5293	80.5801
3116.7187	80.5700
3116.9081	80.5650
3117.0976	80.5771
3117.2872	80.5973
3117.4768	80.5972
3117.6664	80.5817
3117.8561	80.5589
3118.0459	80.5413
3118.2357	80.5268
3118.4256	80.5119
3118.6155	80.5026
3118.8054	80.4963
3118.9955	80.4905
3119.1855	80.4808
3119.3756	80.4685
3119.5658	80.4499
3119.7559	80.4249
3119.9462	80.4130
3120.1364	80.4087
3120.3267	80.4071
3120.5171	80.4111
3120.7074	80.4307
3120.8978	80.4637
3121.0882	80.5059
3121.2787	80.5439
3121.4692	80.5581
3121.6597	80.5573
3121.8502	80.5336
3122.0407	80.5018
3122.2313	80.4927
3122.4218	80.5075
3122.6124	80.5401
3122.8030	80.5654
3122.9936	80.5885
3123.1842	80.6111
3123.3749	80.6310
3123.5655	80.6533
3123.7561	80.6891
3123.9468	80.7409
3124.1374	80.8016
3124.3280	80.8648
3124.5187	80.9314
3124.7093	80.9982
3124.8999	81.0642
3125.0905	81.1292
3125.2812	81.1953
3125.4718	81.2468
3125.6623	81.3027
3125.8529	81.3483
3126.0435	81.3864
3126.2340	81.4276
3126.4246	81.4444
3126.6151	81.4552
3126.8056	81.4609
3126.9960	81.4610
3127.1865	81.4482
3127.3769	81.4190
3127.5673	81.3841
3127.7577	81.3507
3127.9480	81.3119
3128.1384	81.2667
3128.3287	81.2257
3128.5189	81.1668
3128.7092	81.1017
3128.8994	81.0497
3129.0895	81.0133
3129.2797	80.9944
3129.4698	80.9819
3129.6598	80.9834
3129.8499	81.0013
3130.0398	81.0279
3130.2298	81.0746
3130.4197	81.1170
3130.6095	81.1450
3130.7993	81.1724
3130.9891	81.1882
3131.1788	81.1915
3131.3684	81.1894
3131.5581	81.1873
3131.7476	81.1836
3131.9371	81.1875
3132.1266	81.2011
3132.3160	81.2291
3132.5054	81.2441
3132.6947	81.2405
3132.8840	81.2166
3133.0732	81.1857
3133.2623	81.1516
3133.4514	81.1110
3133.6405	81.0704
3133.8295	81.0081
3134.0184	80.9418
3134.2073	80.8811
3134.3961	80.8254
3134.5849	80.7832
3134.7736	80.7333
3134.9622	80.6869
3135.1508	80.6469
3135.3394	80.6141
3135.5279	80.5895
3135.7163	80.5536
3135.9046	80.5127
3136.0929	80.4774
3136.2812	80.4546
3136.4694	80.4450
3136.6575	80.4299
3136.8455	80.4079
3137.0335	80.3918
3137.2215	80.3810
3137.4094	80.3764
3137.5972	80.3770
3137.7849	80.3860
3137.9727	80.4040
3138.1603	80.4236
3138.3479	80.4521
3138.5354	80.4834
3138.7229	80.5053
3138.9103	80.5246
3139.0976	80.5336
3139.2849	80.5343
3139.4721	80.5276
3139.6593	80.5161
3139.8464	80.4927
3140.0334	80.4574
3140.2204	80.4213
3140.4073	80.3758
3140.5942	80.3332
3140.7809	80.2999
3140.9677	80.2550
3141.1544	80.2075
3141.3410	80.1684
3141.5275	80.1192
3141.7140	80.0693
3141.9005	80.0134
3142.0868	79.9482
3142.2732	79.8743
3142.4594	79.8135
3142.6456	79.7362
3142.8318	79.6432
3143.0179	79.5865
3143.2039	79.5452
3143.3899	79.5140
3143.5758	79.4893
3143.7617	79.4653
3143.9475	79.4317
3144.1332	79.3796
3144.3189	79.3360
3144.5046	79.3001
3144.6902	79.2682
3144.8757	79.2397
3145.0612	79.2059
3145.2466	79.1649
3145.4320	79.1372
3145.6173	79.1159
3145.8026	79.1006
3145.9878	79.0948
3146.1730	79.0931
3146.3581	79.0953
3146.5432	79.1015
3146.7282	79.1021
3146.9132	79.0971
3147.0981	79.0958
3147.2830	79.1176
3147.4678	79.1553
3147.6526	79.1997
3147.8374	79.2493
3148.0221	79.3032
3148.2067	79.3675
3148.3913	79.4213
3148.5759	79.4791
3148.7604	79.5428
3148.9448	79.6093
3149.1293	79.6735
3149.3137	79.7288
3149.4980	79.7686
3149.6823	79.8049
3149.8665	79.8338
3150.0508	79.8592
3150.2349	79.8905
3150.4191	79.9242
3150.6031	79.9467
3150.7872	79.9552
3150.9712	79.9547
3151.1552	79.9516
3151.3391	79.9438
3151.5230	79.9342
3151.7069	79.9261
3151.8907	79.9182
3152.0745	79.9041
3152.2582	79.8868
3152.4419	79.8745
3152.6256	79.8687
3152.8093	79.8661
3152.9929	79.8664
3153.1764	79.8692
3153.3600	79.8754
3153.5435	79.8876
3153.7270	79.9023
3153.9104	79.9240
3154.0939	79.9479
3154.2772	79.9736
3154.4606	79.9995
3154.6439	80.0259
3154.8272	80.0573
3155.0105	80.0748
3155.1938	80.0823
3155.3770	80.0838
3155.5602	80.0783
3155.7434	80.0655
3155.9265	80.0450
3156.1097	80.0205
3156.2928	79.9879
3156.4759	79.9641
3156.6590	79.9459
3156.8420	79.9308
3157.0250	79.9123
3157.2080	79.8964
3157.3910	79.8805
3157.5740	79.8637
3157.7570	79.8487
3157.9399	79.8460
3158.1229	79.8405
3158.3058	79.8328
3158.4887	79.8224
3158.6716	79.8146
3158.8545	79.8113
3159.0374	79.8155
3159.2202	79.8276
3159.4031	79.8572
3159.5859	79.8967
3159.7688	79.9448
3159.9516	80.0136
3160.1344	80.0776
3160.3173	80.1384
3160.5001	80.1709
3160.6829	80.1961
3160.8657	80.2133
3161.0485	80.2209
3161.2313	80.2350
3161.4141	80.2630
3161.5969	80.2930
3161.7797	80.3333
3161.9626	80.3662
3162.1454	80.3936
3162.3282	80.4182
3162.5110	80.4337
3162.6938	80.4448
3162.8767	80.4519
3163.0595	80.4619
3163.2423	80.4749
3163.4252	80.4993
3163.6080	80.5439
3163.7909	80.6269
3163.9738	80.7050
3164.1566	80.7847
3164.3395	80.8651
3164.5224	80.9385
3164.7054	81.0034
3164.8883	81.0762
3165.0713	81.1291
3165.2542	81.1732
3165.4372	81.2195
3165.6202	81.2713
3165.8032	81.3260
3165.9863	81.3930
3166.1694	81.4429
3166.3525	81.4867
3166.5356	81.5256
3166.7187	81.5571
3166.9019	81.5757
3167.0851	81.5728
3167.2683	81.5583
3167.4516	81.5430
3167.6348	81.5251
3167.8182	81.5127
3168.0015	81.5030
3168.1849	81.4980
3168.3683	81.4933
3168.5518	81.4907
3168.7353	81.4957
3168.9188	81.5082
3169.1024	81.5361
3169.2860	81.5806
3169.4696	81.6355
3169.6533	81.6801
3169.8371	81.7248
3170.0208	81.7537
3170.2047	81.7823
3170.3885	81.8301
3170.5725	81.8902
3170.7564	81.9512
3170.9405	82.0103
3171.1245	82.0407
3171.3087	82.0656
3171.4928	82.0935
3171.6771	82.1411
3171.8614	82.1913
3172.0457	82.2524
3172.2301	82.3242
3172.4146	82.4170
3172.5991	82.4792
3172.7837	82.5239
3172.9683	82.5569
3173.1530	82.5956
3173.3378	82.6259
3173.5227	82.6478
3173.7075	82.6595
3173.8925	82.6724
3174.0775	82.7099
3174.2626	82.7645
3174.4478	82.8144
3174.6331	82.8688
3174.8184	82.9337
3175.0038	82.9778
3175.1892	83.0224
3175.3748	83.0774
3175.5604	83.1247
3175.7461	83.1614
3175.9318	83.1769
3176.1177	83.1945
3176.3036	83.2155
3176.4896	83.2409
3176.6757	83.2751
3176.8619	83.3155
3177.0482	83.3582
3177.2346	83.4013
3177.4210	83.4439
3177.6075	83.4856
3177.7942	83.5238
3177.9809	83.5581
3178.1677	83.5931
3178.3546	83.6232
3178.5416	83.6401
3178.7287	83.6407
3178.9159	83.6282
3179.1031	83.6130
3179.2905	83.5943
3179.4780	83.5757
3179.6656	83.5572
3179.8533	83.5422
3180.0410	83.5285
3180.2289	83.5125
3180.4169	83.4883
3180.6050	83.4504
3180.7932	83.4049
3180.9815	83.3646
3181.1699	83.3413
3181.3584	83.3272
3181.5470	83.3222
3181.7358	83.3273
3181.9246	83.3418
3182.1136	83.3619
3182.3026	83.3828
3182.4918	83.4092
3182.6811	83.4270
3182.8705	83.4462
3183.0600	83.4681
3183.2496	83.4900
3183.4393	83.5009
3183.6291	83.5060
3183.8191	83.5349
3184.0091	83.5843
3184.1993	83.6416
3184.3896	83.6885
3184.5800	83.7275
3184.7705	83.7561
3184.9611	83.7848
3185.1518	83.8190
3185.3427	83.8665
3185.5336	83.9098
3185.7247	83.9286
3185.9159	83.9333
3186.1073	83.9281
3186.2987	83.9277
3186.4903	83.9302
3186.6819	83.9339
3186.8737	83.9339
3187.0657	83.9627
3187.2577	84.0125
3187.4499	84.0749
3187.6422	84.1445
3187.8346	84.2272
3188.0271	84.3208
3188.2198	84.4065
3188.4126	84.4826
3188.6055	84.5516
3188.7985	84.6208
3188.9917	84.6908
3189.1850	84.7730
3189.3784	84.8701
3189.5719	84.9736
3189.7656	85.0789
3189.9594	85.1689
3190.1533	85.2750
3190.3474	85.3634
3190.5416	85.4463
3190.7359	85.4999
3190.9303	85.5494
3191.1249	85.5701
3191.3196	85.5672
3191.5144	85.5338
3191.7094	85.5057
3191.9045	85.4775
3192.0997	85.4371
3192.2950	85.3900
3192.4905	85.3407
3192.6861	85.3036
3192.8819	85.2664
3193.0777	85.2352
3193.2737	85.2091
3193.4698	85.1810
3193.6660	85.1385
3193.8624	85.0941
3194.0589	85.0499
3194.2555	85.0153
3194.4522	84.9796
3194.6491	84.9507
3194.8461	84.9304
3195.0432	84.9126
3195.2404	84.8870
3195.4378	84.8616
3195.6353	84.8423
3195.8329	84.8219
3196.0306	84.8035
3196.2285	84.7892
3196.4265	84.7693
3196.6246	84.7476
3196.8228	84.7013
3197.0211	84.6515
3197.2196	84.6152
3197.4182	84.5779
3197.6169	84.5399
3197.8158	84.4884
3198.0147	84.4363
3198.2138	84.3652
3198.4130	84.2971
3198.6124	84.2302
3198.8118	84.1625
3199.0114	84.1083
3199.2111	84.0393
3199.4109	83.9661
3199.6108	83.9065
3199.8109	83.8348
3200.0111	83.7561
3200.2114	83.6750
3200.4118	83.5973
3200.6123	83.5204
3200.8130	83.4465
3201.0137	83.3905
3201.2146	83.3289
3201.4156	83.2844
3201.6167	83.2614
3201.8179	83.2543
3202.0192	83.2425
3202.2206	83.2241
3202.4221	83.2069
3202.6237	83.1969
3202.8254	83.1931
3203.0272	83.1940
3203.2290	83.2003
3203.4309	83.2029
3203.6329	83.1983
3203.8350	83.1855
3204.0371	83.1749
3204.2393	83.1661
3204.4415	83.1594
3204.6437	83.1533
3204.8460	83.1502
3205.0483	83.1369
3205.2507	83.1100
3205.4530	83.0827
3205.6553	83.0510
3205.8577	83.0230
3206.0600	82.9993
3206.2623	82.9815
3206.4646	82.9633
3206.6668	82.9383
3206.8690	82.9052
3207.0711	82.8741
3207.2732	82.8438
3207.4752	82.8162
3207.6771	82.8015
3207.8789	82.7984
3208.0806	82.8041
3208.2821	82.8059
3208.4836	82.8094
3208.6849	82.8220
3208.8860	82.8410
3209.0870	82.8539
3209.2878	82.8571
3209.4884	82.8574
3209.6888	82.8630
3209.8890	82.8738
3210.0889	82.8758
3210.2887	82.8637
3210.4881	82.8599
3210.6873	82.8765
3210.8862	82.9012
3211.0848	82.9294
3211.2832	82.9454
3211.4811	82.9582
3211.6788	82.9714
3211.8761	82.9841
3212.0730	82.9980
3212.2695	83.0013
3212.4657	82.9906
3212.6614	82.9749
3212.8567	82.9645
3213.0516	82.9507
3213.2460	82.9303
3213.4399	82.8836
3213.6333	82.8154
3213.8263	82.7607
3214.0187	82.6983
3214.2106	82.6555
3214.4019	82.6059
3214.5927	82.5694
3214.7829	82.5282
3214.9725	82.4906
3215.1615	82.4603
3215.3498	82.4148
3215.5375	82.3736
3215.7246	82.3166
3215.9110	82.2553
3216.0967	82.2282
3216.2817	82.1991
3216.4660	82.1765
3216.6496	82.1446
3216.8325	82.1166
3217.0147	82.1024
3217.1961	82.0971
3217.3767	82.0921
3217.5566	82.0808
3217.7358	82.0699
3217.9142	82.0557
3218.0918	82.0421
3218.2686	82.0212
3218.4447	81.9959
3218.6199	81.9729
3218.7944	81.9417
3218.9681	81.9131
3219.1411	81.8734
3219.3132	81.8410
3219.4845	81.7981
3219.6551	81.7486
3219.8249	81.7014
3219.9939	81.6313
3220.1621	81.5575
3220.3295	81.5052
3220.4961	81.4481
3220.6620	81.3936
3220.8271	81.3357
3220.9914	81.2740
3221.1549	81.2067
3221.3177	81.1480
3221.4798	81.0688
3221.6411	80.9891
3221.8016	80.9129
3221.9614	80.8404
3222.1205	80.7694
3222.2788	80.7004
3222.4364	80.6283
3222.5933	80.5527
3222.7495	80.4780
3222.9050	80.4190
3223.0598	80.3721
3223.2139	80.3405
3223.3673	80.3022
3223.5201	80.2577
3223.6722	80.2153
3223.8237	80.1784
3223.9745	80.1485
3224.1247	80.1249
3224.2743	80.1080
3224.4233	80.0974
3224.5716	80.0916
3224.7194	80.0919
3224.8666	80.0982
3225.0132	80.1025
3225.1593	80.1046
3225.3048	80.1057
3225.4498	80.1077
3225.5942	80.1119
3225.7381	80.1166
3225.8815	80.1198
3226.0244	80.1188
3226.1668	80.1138
3226.3088	80.1047
3226.4503	80.0924
3226.5913	80.0803
3226.7319	80.0666
3226.8720	80.0538
3227.0117	80.0368
3227.1511	80.0153
3227.2900	79.9837
3227.4285	79.9512
3227.5667	79.9117
3227.7045	79.8590
3227.8419	79.8209
3227.9791	79.7905
3228.1159	79.7644
3228.2523	79.7491
3228.3885	79.7414
3228.5244	79.7400
3228.6601	79.7428
3228.7954	79.7493
3228.9306	79.7622
3229.0655	79.7759
3229.2001	79.7927
3229.3346	79.8188
3229.4689	79.8327
3229.6030	79.8349
3229.7369	79.8253
3229.8707	79.8108
3230.0043	79.8021
3230.1378	79.8030
3230.2712	79.8120
3230.4046	79.8256
3230.5378	79.8488
3230.6710	79.8747
3230.8041	79.9082
3230.9372	79.9506
3231.0703	80.0013
3231.2034	80.0579
3231.3364	80.1112
3231.4696	80.1596
3231.6027	80.2085
3231.7360	80.2400
3231.8693	80.2639
3232.0027	80.2806
3232.1362	80.2889
3232.2699	80.2874
3232.4037	80.2747
3232.5377	80.2508
3232.6718	80.2339
3232.8062	80.2333
3232.9408	80.2486
3233.0756	80.2815
3233.2107	80.3199
3233.3460	80.3590
3233.4817	80.3979
3233.6177	80.4360
3233.7540	80.4741
3233.8907	80.5039
3234.0277	80.5407
3234.1652	80.5740
3234.3031	80.5996
3234.4415	80.6170
3234.5804	80.6242
3234.7197	80.6252
3234.8596	80.6181
3234.9999	80.6031
3235.1409	80.5841
3235.2824	80.5570
3235.4245	80.5323
3235.5672	80.5130
3235.7106	80.5009
3235.8545	80.4865
3235.9991	80.4738
3236.1444	80.4573
3236.2904	80.4418
3236.4371	80.4281
3236.5844	80.4070
3236.7325	80.3824
3236.8813	80.3542
3237.0308	80.3214
3237.1810	80.2907
3237.3321	80.2460
3237.4838	80.1950
3237.6363	80.1388
3237.7896	80.0776
3237.9436	80.0258
3238.0984	79.9566
3238.2539	79.8813
3238.4102	79.8000
3238.5673	79.7131
3238.7251	79.6251
3238.8837	79.5443
3239.0430	79.4717
3239.2030	79.4093
3239.3637	79.3482
3239.5252	79.2805
3239.6873	79.2099
3239.8501	79.1386
3240.0136	79.0716
3240.1777	79.0103
3240.3425	78.9485
3240.5078	78.9088
3240.6737	78.8796
3240.8402	78.8598
3241.0071	78.8494
3241.1746	78.8456
3241.3425	78.8479
3241.5109	78.8566
3241.6797	78.8586
3241.8489	78.8475
3242.0185	78.8240
3242.1884	78.7886
3242.3587	78.7628
3242.5292	78.7400
3242.7001	78.7204
3242.8712	78.7042
3243.0426	78.6905
3243.2142	78.6805
3243.3859	78.6778
3243.5579	78.6826
3243.7300	78.6946
3243.9023	78.7151
3244.0746	78.7382
3244.2471	78.7758
3244.4197	78.8168
3244.5923	78.8436
3244.7650	78.8554
3244.9377	78.8541
3245.1104	78.8439
3245.2831	78.8252
3245.4557	78.7976
3245.6284	78.7714
3245.8010	78.7508
3245.9735	78.7376
3246.1459	78.7201
3246.3182	78.6919
3246.4905	78.6513
3246.6626	78.6024
3246.8346	78.5482
3247.0064	78.4866
3247.1780	78.4210
3247.3495	78.3541
3247.5209	78.2857
3247.6920	78.2116
3247.8629	78.1287
3248.0336	78.0141
3248.2041	77.9077
3248.3744	77.7966
3248.5445	77.6842
3248.7143	77.5616
3248.8838	77.4698
3249.0531	77.3890
3249.2221	77.3264
3249.3909	77.2781
3249.5594	77.2576
3249.7276	77.2513
3249.8956	77.2666
3250.0632	77.2912
3250.2306	77.3232
3250.3977	77.3598
3250.5644	77.3864
3250.7309	77.4017
3250.8971	77.4093
3251.0630	77.4237
3251.2286	77.4495
3251.3939	77.4862
3251.5589	77.5249
3251.7235	77.5646
3251.8879	77.6040
3252.0520	77.6407
3252.2158	77.6739
3252.3793	77.7029
3252.5425	77.7287
3252.7054	77.7522
3252.8681	77.7708
3253.0304	77.7808
3253.1925	77.7767
3253.3542	77.7675
3253.5158	77.7525
3253.6770	77.7311
3253.8380	77.7084
3253.9987	77.6913
3254.1591	77.6820
3254.3193	77.6731
3254.4793	77.6592
3254.6390	77.6403
3254.7984	77.6132
3254.9576	77.5776
3255.1166	77.5353
3255.2753	77.4955
3255.4338	77.4615
3255.5921	77.4335
3255.7501	77.4101
3255.9080	77.3880
3256.0656	77.3657
3256.2229	77.3394
3256.3801	77.3172
3256.5370	77.2950
3256.6938	77.2717
3256.8503	77.2486
3257.0066	77.2268
3257.1628	77.2072
3257.3187	77.1929
3257.4744	77.1827
3257.6300	77.1583
3257.7853	77.1274
3257.9405	77.0939
3258.0954	77.0778
3258.2502	77.0848
3258.4048	77.1166
3258.5593	77.1295
3258.7135	77.1275
3258.8676	77.1129
3259.0215	77.0958
3259.1752	77.0785
3259.3288	77.0617
3259.4822	77.0488
3259.6355	77.0418
3259.7885	77.0356
3259.9415	77.0278
3260.0942	77.0170
3260.2469	77.0105
3260.3993	77.0128
3260.5517	77.0210
3260.7038	77.0354
3260.8559	77.0492
3261.0078	77.0624
3261.1595	77.0780
3261.3111	77.0924
3261.4626	77.1015
3261.6139	77.1104
3261.7652	77.1244
3261.9162	77.1420
3262.0672	77.1599
3262.2180	77.1845
3262.3687	77.2062
3262.5193	77.2233
3262.6698	77.2306
3262.8201	77.2293
3262.9703	77.2151
3263.1204	77.1860
3263.2704	77.1503
3263.4203	77.1188
3263.5701	77.0976
3263.7198	77.0751
3263.8693	77.0478
3264.0188	77.0128
3264.1681	76.9677
3264.3174	76.9147
3264.4665	76.8524
3264.6156	76.8077
3264.7645	76.7607
3264.9134	76.7099
3265.0621	76.6564
3265.2108	76.6063
3265.3594	76.5677
3265.5079	76.5396
3265.6563	76.5196
3265.8046	76.5008
3265.9528	76.4844
3266.1009	76.4705
3266.2490	76.4583
3266.3969	76.4509
3266.5448	76.4505
3266.6926	76.4517
3266.8403	76.4460
3266.9880	76.4305
3267.1355	76.4061
3267.2830	76.3860
3267.4304	76.3735
3267.5778	76.3673
3267.7251	76.3639
3267.8723	76.3616
3268.0194	76.3603
3268.1665	76.3587
3268.3135	76.3595
3268.4604	76.3628
3268.6072	76.3691
3268.7540	76.3672
3268.9008	76.3537
3269.0475	76.3285
3269.1941	76.2957
3269.3406	76.2603
3269.4871	76.2209
3269.6335	76.1701
3269.7799	76.1328
3269.9262	76.1008
3270.0725	76.0755
3270.2187	76.0606
3270.3649	76.0590
3270.5110	76.0718
3270.6571	76.0825
3270.8031	76.0836
3270.9490	76.0787
3271.0949	76.0718
3271.2408	76.0663
3271.3866	76.0621
3271.5323	76.0583
3271.6781	76.0463
3271.8237	76.0226
3271.9693	75.9846
3272.1149	75.9424
3272.2605	75.9081
3272.4060	75.8858
3272.5514	75.8725
3272.6968	75.8682
3272.8422	75.8737
3272.9875	75.8880
3273.1328	75.9037
3273.2780	75.9211
3273.4233	75.9380
3273.5684	75.9506
3273.7135	75.9608
3273.8586	75.9655
3274.0037	75.9606
3274.1487	75.9510
3274.2936	75.9417
3274.4386	75.9306
3274.5835	75.9210
3274.7283	75.9028
3274.8731	75.8744
3275.0179	75.8485
3275.1627	75.8245
3275.3074	75.8100
3275.4520	75.8018
3275.5967	75.8010
3275.7413	75.8046
3275.8859	75.8072
3276.0304	75.7999
3276.1749	75.7774
3276.3194	75.7672
3276.4638	75.7608
3276.6082	75.7602
3276.7526	75.7674
3276.8969	75.7744
3277.0412	75.7766
3277.1855	75.7742
3277.3297	75.7735
3277.4739	75.7821
3277.6181	75.8005
3277.7623	75.8239
3277.9064	75.8442
3278.0505	75.8667
3278.1945	75.8963
3278.3385	75.9435
3278.4825	75.9925
3278.6265	76.0512
3278.7704	76.1111
3278.9143	76.1663
3279.0582	76.2162
3279.2020	76.2612
3279.3458	76.3126
3279.4895	76.3536
3279.6333	76.3946
3279.7770	76.4313
3279.9207	76.4652
3280.0643	76.4959
3280.2079	76.5315
3280.3515	76.5772
3280.4950	76.6321
3280.6385	76.6913
3280.7820	76.7439
3280.9254	76.7878
3281.0689	76.8208
3281.2122	76.8538
3281.3556	76.8906
3281.4989	76.9312
3281.6421	76.9719
3281.7854	77.0037
3281.9286	77.0235
3282.0717	77.0303
3282.2148	77.0293
3282.3579	77.0232
3282.5009	77.0115
3282.6439	76.9943
3282.7869	76.9847
3282.9298	76.9809
3283.0727	76.9821
3283.2155	76.9832
3283.3583	76.9831
3283.5011	76.9834
3283.6438	76.9785
3283.7865	76.9686
3283.9291	76.9501
3284.0717	76.9309
3284.2142	76.9318
3284.3567	76.9559
3284.4992	76.9975
3284.6416	77.0369
3284.7839	77.0729
3284.9262	77.1111
3285.0685	77.1424
3285.2107	77.1722
3285.3529	77.2013
3285.4950	77.2324
3285.6370	77.2490
3285.7790	77.2582
3285.9210	77.2619
3286.0629	77.2689
3286.2047	77.2811
3286.3465	77.2997
3286.4883	77.3268
3286.6300	77.3731
3286.7716	77.4230
3286.9132	77.4816
3287.0547	77.5620
3287.1962	77.6371
3287.3376	77.7155
3287.4790	77.7849
3287.6203	77.8500
3287.7616	77.8904
3287.9028	77.9288
3288.0439	77.9691
3288.1850	78.0202
3288.3261	78.0660
3288.4671	78.1179
3288.6080	78.1785
3288.7489	78.2479
3288.8897	78.3266
3289.0305	78.4152
3289.1712	78.5129
3289.3119	78.6124
3289.4525	78.7085
3289.5931	78.8014
3289.7336	78.8880
3289.8740	78.9672
3290.0144	79.0385
3290.1548	79.1002
3290.2951	79.1497
3290.4354	79.1892
3290.5756	79.2208
3290.7157	79.2422
3290.8558	79.2569
3290.9959	79.2620
3291.1359	79.2569
3291.2759	79.2462
3291.4158	79.2369
3291.5557	79.2292
3291.6955	79.2195
3291.8353	79.2100
3291.9751	79.1976
3292.1148	79.1811
3292.2544	79.1703
3292.3940	79.1661
3292.5336	79.1714
3292.6732	79.1864
3292.8127	79.2012
3292.9522	79.2163
3293.0916	79.2361
3293.2310	79.2510
3293.3704	79.2639
3293.5097	79.2744
3293.6490	79.2815
3293.7883	79.2886
3293.9276	79.3009
3294.0668	79.3155
3294.2060	79.3354
3294.3452	79.3638
3294.4844	79.4009
3294.6235	79.4435
3294.7626	79.4904
3294.9017	79.5232
3295.0408	79.5499
3295.1799	79.5756
3295.3190	79.6036
3295.4580	79.6340
3295.5971	79.6650
3295.7361	79.6932
3295.8752	79.7191
3296.0142	79.7425
3296.1532	79.7623
3296.2923	79.7769
3296.4313	79.7869
3296.5703	79.7909
3296.7094	79.7964
3296.8484	79.8047
3296.9875	79.8169
3297.1266	79.8329
3297.2657	79.8604
3297.4048	79.8971
3297.5439	79.9228
3297.6830	79.9419
3297.8222	79.9582
3297.9614	79.9748
3298.1006	79.9956
3298.2399	80.0117
3298.3792	80.0287
3298.5185	80.0478
3298.6578	80.0542
3298.7972	80.0541
3298.9367	80.0485
3299.0761	80.0456
3299.2156	80.0483
3299.3552	80.0600
3299.4948	80.0771
3299.6345	80.1070
3299.7742	80.1385
3299.9140	80.1745
3300.0539	80.2059
3300.1938	80.2338
3300.3338	80.2605
3300.4738	80.3036
3300.6140	80.3653
3300.7541	80.4233
3300.8944	80.4837
3301.0348	80.5427
3301.1752	80.5994
3301.3157	80.6504
3301.4563	80.6986
3301.5970	80.7588
3301.7378	80.8049
3301.8787	80.8476
3302.0197	80.8859
3302.1608	80.9180
3302.3020	80.9433
3302.4433	80.9622
3302.5848	80.9635
3302.7263	80.9519
3302.8680	80.9317
3303.0098	80.9105
3303.1517	80.8846
3303.2938	80.8659
3303.4359	80.8608
3303.5783	80.8724
3303.7208	80.9057
3303.8634	80.9516
3304.0062	80.9983
3304.1491	81.0434
3304.2922	81.0865
3304.4354	81.1331
3304.5789	81.1851
3304.7225	81.2402
3304.8662	81.2989
3305.0102	81.3603
3305.1543	81.4191
3305.2986	81.4753
3305.4431	81.5161
3305.5877	81.5559
3305.7326	81.5820
3305.8776	81.5930
3306.0228	81.5978
3306.1682	81.6033
3306.3138	81.6102
3306.4596	81.6168
3306.6056	81.6233
3306.7517	81.6347
3306.8981	81.6547
3307.0446	81.6735
3307.1913	81.6911
3307.3382	81.6956
3307.4853	81.6845
3307.6325	81.6664
3307.7800	81.6331
3307.9276	81.5875
3308.0753	81.5280
3308.2233	81.4624
3308.3714	81.3960
3308.5196	81.3426
3308.6680	81.2759
3308.8166	81.1994
3308.9653	81.1069
3309.1141	81.0162
3309.2631	80.9321
3309.4122	80.8593
3309.5614	80.8005
3309.7108	80.7534
3309.8602	80.7145
3310.0097	80.6839
3310.1593	80.6641
3310.3090	80.6425
3310.4588	80.6147
3310.6086	80.5816
3310.7585	80.5523
3310.9085	80.5019
3311.0585	80.4599
3311.2085	80.4380
3311.3585	80.4190
3311.5085	80.4056
3311.6586	80.4025
3311.8086	80.4031
3311.9586	80.3995
3312.1085	80.3918
3312.2584	80.3777
3312.4083	80.3705
3312.5581	80.3720
3312.7078	80.3782
3312.8574	80.3890
3313.0069	80.4011
3313.1562	80.4095
3313.3055	80.4126
3313.4546	80.4021
3313.6035	80.3767
3313.7523	80.3400
3313.9008	80.2894
3314.0492	80.2363
3314.1973	80.1972
3314.3452	80.1498
3314.4928	80.0980
3314.6402	80.0391
3314.7873	79.9788
3314.9341	79.9435
3315.0806	79.8999
3315.2267	79.8581
3315.3725	79.8201
3315.5179	79.7912
3315.6630	79.7689
3315.8077	79.7560
3315.9519	79.7486
3316.0958	79.7346
3316.2391	79.7166
3316.3821	79.6947
3316.5245	79.6711
3316.6664	79.6478
3316.8079	79.6268
3316.9488	79.6103
3317.0891	79.5883
3317.2289	79.5639
3317.3682	79.5352
3317.5068	79.5013
3317.6449	79.4677
3317.7823	79.4414
3317.9191	79.4095
3318.0553	79.3776
3318.1909	79.3461
3318.3257	79.3191
3318.4600	79.3070
3318.5935	79.3010
3318.7264	79.3000
3318.8586	79.2979
3318.9900	79.2896
3319.1208	79.2785
3319.2509	79.2597
3319.3802	79.2382
3319.5088	79.2196
3319.6367	79.1921
3319.7638	79.1634
3319.8903	79.1430
3320.0159	79.1210
3320.1408	79.0994
3320.2650	79.0819
3320.3884	79.0625
3320.5111	79.0487
3320.6330	79.0329
3320.7542	79.0134
3320.8746	78.9941
3320.9942	78.9686
3321.1131	78.9407
3321.2312	78.9169
3321.3486	78.8858
3321.4652	78.8522
3321.5810	78.8132
3321.6961	78.7753
3321.8105	78.7197
3321.9240	78.6550
3322.0369	78.5857
3322.1490	78.5134
3322.2603	78.4367
3322.3709	78.3567
3322.4808	78.2806
3322.5899	78.2236
3322.6983	78.1581
3322.8060	78.1002
3322.9130	78.0485
3323.0192	77.9996
3323.1248	77.9539
3323.2297	77.9111
3323.3339	77.8703
3323.4374	77.8229
3323.5403	77.7841
3323.6425	77.7486
3323.7440	77.7207
3323.8449	77.7003
3323.9452	77.6887
3324.0449	77.6833
3324.1439	77.6794
3324.2424	77.6748
3324.3403	77.6682
3324.4375	77.6562
3324.5343	77.6343
3324.6304	77.5966
3324.7260	77.5547
3324.8211	77.5106
3324.9156	77.4646
3325.0097	77.4324
3325.1032	77.4082
3325.1962	77.3924
3325.2888	77.3815
3325.3809	77.3799
3325.4725	77.3854
3325.5637	77.3968
3325.6544	77.4106
3325.7447	77.4253
3325.8346	77.4431
3325.9242	77.4570
3326.0133	77.4713
3326.1020	77.4897
3326.1904	77.5150
3326.2785	77.5471
3326.3662	77.5839
3326.4536	77.6132
3326.5406	77.6324
3326.6274	77.6441
3326.7139	77.6501
3326.8001	77.6492
3326.8861	77.6477
3326.9718	77.6460
3327.0573	77.6459
3327.1425	77.6492
3327.2276	77.6502
3327.3125	77.6536
3327.3972	77.6664
3327.4817	77.6840
3327.5661	77.7152
3327.6503	77.7523
3327.7345	77.7835
3327.8185	77.8266
3327.9024	77.8648
3327.9863	77.9137
3328.0701	77.9532
3328.1539	78.0016
3328.2376	78.0394
3328.3213	78.0846
3328.4051	78.1224
3328.4888	78.1449
3328.5726	78.1643
3328.6564	78.1716
3328.7402	78.1709
3328.8242	78.1646
3328.9082	78.1502
3328.9923	78.1354
3329.0766	78.1105
3329.1609	78.0836
3329.2454	78.0406
3329.3300	77.9853
3329.4148	77.9343
3329.4997	77.8732
3329.5848	77.8126
3329.6702	77.7613
3329.7557	77.6958
3329.8414	77.6457
3329.9273	77.5863
3330.0134	77.5306
3330.0998	77.4894
3330.1865	77.4435
3330.2733	77.4036
3330.3605	77.3651
3330.4479	77.3338
3330.5355	77.2934
3330.6235	77.2511
3330.7118	77.2173
3330.8003	77.1746
3330.8892	77.1319
3330.9783	77.0866
3331.0678	77.0481
3331.1576	76.9984
3331.2477	76.9467
3331.3381	76.9028
3331.4289	76.8459
3331.5200	76.7914
3331.6115	76.7413
3331.7033	76.7042
3331.7954	76.6608
3331.8879	76.6214
3331.9808	76.5912
3332.0740	76.5493
3332.1675	76.5251
3332.2614	76.5018
3332.3557	76.4790
3332.4503	76.4599
3332.5452	76.4338
3332.6406	76.4055
3332.7362	76.3755
3332.8322	76.3503
3332.9286	76.3154
3333.0252	76.2767
3333.1222	76.2364
3333.2196	76.1951
3333.3172	76.1490
3333.4152	76.0977
3333.5135	76.0434
3333.6120	75.9989
3333.7109	75.9436
3333.8100	75.8901
3333.9094	75.8425
3334.0091	75.8007
3334.1090	75.7656
3334.2092	75.7371
3334.3095	75.7140
3334.4101	75.6970
3334.5109	75.6861
3334.6119	75.6802
3334.7131	75.6799
3334.8144	75.6846
3334.9159	75.6933
3335.0176	75.6985
3335.1193	75.6999
3335.2213	75.6969
3335.3233	75.6873
3335.4255	75.6663
3335.5277	75.6339
3335.6301	75.5968
3335.7325	75.5683
3335.8350	75.5509
3335.9376	75.5417
3336.0402	75.5397
3336.1429	75.5429
3336.2456	75.5481
3336.3483	75.5496
3336.4511	75.5455
3336.5538	75.5359
3336.6566	75.5186
3336.7594	75.4896
3336.8621	75.4699
3336.9649	75.4541
3337.0676	75.4405
3337.1702	75.4293
3337.2728	75.4141
3337.3754	75.3875
3337.4779	75.3482
3337.5803	75.3153
3337.6827	75.2965
3337.7850	75.2897
3337.8872	75.2917
3337.9893	75.2995
3338.0913	75.3059
3338.1932	75.3117
3338.2949	75.3176
3338.3966	75.3253
3338.4981	75.3367
3338.5996	75.3579
3338.7008	75.3922
3338.8020	75.4310
3338.9030	75.4634
3339.0038	75.4890
3339.1045	75.5169
3339.2051	75.5495
3339.3055	75.5792
3339.4057	75.6007
3339.5057	75.6161
3339.6056	75.6264
3339.7053	75.6322
3339.8048	75.6462
3339.9041	75.6721
3340.0032	75.6990
3340.1022	75.7188
3340.2010	75.7315
3340.2995	75.7291
3340.3979	75.7070
3340.4960	75.6769
3340.5940	75.6447
3340.6917	75.6096
3340.7893	75.5869
3340.8866	75.5687
3340.9837	75.5463
3341.0806	75.5276
3341.1773	75.5111
3341.2737	75.4931
3341.3700	75.4799
3341.4660	75.4692
3341.5618	75.4615
3341.6574	75.4560
3341.7528	75.4545
3341.8479	75.4594
3341.9428	75.4747
3342.0375	75.5056
3342.1320	75.5389
3342.2263	75.5770
3342.3203	75.6188
3342.4141	75.6759
3342.5076	75.7286
3342.6010	75.7851
3342.6941	75.8379
3342.7870	75.8802
3342.8797	75.9155
3342.9721	75.9514
3343.0644	75.9826
3343.1564	76.0017
3343.2482	76.0286
3343.3398	76.0591
3343.4311	76.0860
3343.5223	76.1115
3343.6132	76.1229
3343.7039	76.1245
3343.7944	76.1158
3343.8847	76.1031
3343.9748	76.0882
3344.0647	76.0706
3344.1544	76.0548
3344.2438	76.0465
3344.3331	76.0566
3344.4222	76.0812
3344.5111	76.1119
3344.5998	76.1547
3344.6883	76.1884
3344.7766	76.2226
3344.8647	76.2486
3344.9526	76.2795
3345.0404	76.3054
3345.1280	76.3318
3345.2154	76.3693
3345.3026	76.4131
3345.3897	76.4702
3345.4766	76.5478
3345.5633	76.6179
3345.6499	76.6917
3345.7363	76.7835
3345.8226	76.8537
3345.9087	76.9124
3345.9947	76.9675
3346.0806	77.0353
3346.1663	77.0910
3346.2519	77.1403
3346.3373	77.1835
3346.4227	77.2398
3346.5079	77.3007
3346.5930	77.3729
3346.6780	77.4388
3346.7629	77.4932
3346.8477	77.5378
3346.9324	77.5915
3347.0171	77.6370
3347.1016	77.6780
3347.1861	77.7110
3347.2705	77.7359
3347.3548	77.7654
3347.4391	77.8047
3347.5233	77.8528
3347.6075	77.9034
3347.6916	77.9535
3347.7757	78.0033
3347.8597	78.0569
3347.9437	78.1146
3348.0277	78.1824
3348.1117	78.2277
3348.1957	78.2639
3348.2797	78.2960
3348.3637	78.3300
3348.4477	78.3657
3348.5317	78.3970
3348.6158	78.4184
3348.6999	78.4282
3348.7840	78.4388
3348.8682	78.4579
3348.9525	78.4749
3349.0368	78.4868
3349.1211	78.4933
3349.2056	78.4933
3349.2901	78.4954
3349.3748	78.5044
3349.4595	78.5142
3349.5444	78.5241
3349.6293	78.5400
3349.7144	78.5614
3349.7997	78.5869
3349.8850	78.6185
3349.9706	78.6523
3350.0563	78.6755
3350.1421	78.6909
3350.2282	78.7068
3350.3145	78.7317
3350.4009	78.7672
3350.4876	78.8110
3350.5745	78.8544
3350.6616	78.8986
3350.7490	78.9381
3350.8367	78.9963
3350.9246	79.0645
3351.0128	79.1361
3351.1013	79.1848
3351.1901	79.2348
3351.2792	79.2759
3351.3686	79.3014
3351.4584	79.3209
3351.5486	79.3253
3351.6391	79.3180
3351.7299	79.2971
3351.8212	79.2821
3351.9128	79.2675
3352.0048	79.2593
3352.0972	79.2537
3352.1899	79.2398
3352.2831	79.2128
3352.3766	79.1810
3352.4705	79.1311
3352.5648	79.0768
3352.6594	79.0219
3352.7544	78.9625
3352.8498	78.8909
3352.9454	78.8074
3353.0415	78.7190
3353.1378	78.6347
3353.2344	78.5404
3353.3314	78.4591
3353.4285	78.3545
3353.5260	78.2636
3353.6236	78.1583
3353.7215	78.0793
3353.8195	78.0015
3353.9176	77.9201
3354.0159	77.8458
3354.1143	77.7772
3354.2127	77.7355
3354.3111	77.7099
3354.4096	77.6911
3354.5080	77.6721
3354.6063	77.6641
3354.7046	77.6710
3354.8027	77.6883
3354.9007	77.7246
3354.9986	77.7816
3355.0962	77.8509
3355.1937	77.9577
3355.2910	78.0709
3355.3881	78.1685
3355.4850	78.2843
3355.5816	78.3773
3355.6780	78.4859
3355.7742	78.5700
3355.8701	78.6626
3355.9657	78.7555
3356.0612	78.8390
3356.1563	78.9283
3356.2512	79.0155
3356.3459	79.0905
3356.4404	79.1682
3356.5346	79.2656
3356.6285	79.3437
3356.7223	79.4156
3356.8159	79.4797
3356.9093	79.5396
3357.0025	79.5968
3357.0956	79.6605
3357.1885	79.7348
3357.2813	79.8234
3357.3740	79.9225
3357.4666	80.0305
3357.5591	80.1419
3357.6516	80.2350
3357.7441	80.3557
3357.8366	80.4801
3357.9292	80.5792
3358.0218	80.6845
3358.1145	80.7454
3358.2073	80.8175
3358.3003	80.8579
3358.3934	80.8848
3358.4867	80.8870
3358.5801	80.8778
3358.6738	80.8803
3358.7676	80.8863
3358.8616	80.8958
3358.9559	80.9060
3359.0503	80.8875
3359.1450	80.8492
3359.2399	80.7928
3359.3350	80.7243
3359.4303	80.6407
3359.5257	80.5505
3359.6214	80.4584
3359.7172	80.3536
3359.8131	80.2135
3359.9092	80.1159
3360.0053	80.0364
3360.1016	79.9603
3360.1978	79.9094
3360.2942	79.8618
3360.3904	79.8338
3360.4867	79.8202
3360.5829	79.8200
3360.6789	79.8471
3360.7748	79.9035
3360.8705	79.9894
3360.9659	80.0738
3361.0612	80.1733
3361.1561	80.2906
3361.2508	80.3933
3361.3451	80.5019
3361.4391	80.6170
3361.5328	80.7392
3361.6261	80.8607
3361.7191	80.9741
3361.8117	81.0857
3361.9039	81.2047
3361.9957	81.3314
3362.0871	81.4298
3362.1781	81.5435
3362.2688	81.6435
3362.3590	81.7189
3362.4488	81.7618
3362.5382	81.7798
3362.6273	81.8018
3362.7159	81.8183
3362.8040	81.8375
3362.8918	81.8587
3362.9792	81.8739
3363.0661	81.8820
3363.1526	81.8789
3363.2387	81.8639
3363.3243	81.8409
3363.4096	81.8106
3363.4944	81.7797
3363.5788	81.7290
3363.6627	81.6645
3363.7462	81.5867
3363.8293	81.5280
3363.9120	81.4808
3363.9942	81.4497
3364.0760	81.4335
3364.1574	81.4246
3364.2383	81.4164
3364.3189	81.4116
3364.3990	81.4027
3364.4786	81.3876
3364.5579	81.3677
3364.6367	81.3423
3364.7151	81.3131
3364.7931	81.2750
3364.8707	81.2620
3364.9478	81.2600
3365.0245	81.2696
3365.1009	81.2923
3365.1768	81.3180
3365.2523	81.3607
3365.3274	81.4047
3365.4021	81.4366
3365.4763	81.4620
3365.5502	81.4888
3365.6237	81.5100
3365.6968	81.5359
3365.7695	81.5512
3365.8418	81.5520
3365.9137	81.5461
3365.9853	81.5551
3366.0564	81.5546
3366.1272	81.5337
3366.1976	81.5077
3366.2677	81.4756
3366.3373	81.4367
3366.4066	81.3882
3366.4756	81.3149
3366.5442	81.2498
3366.6124	81.1980
3366.6803	81.1665
3366.7478	81.1394
3366.8150	81.1199
3366.8819	81.1088
3366.9484	81.1092
3367.0145	81.1080
3367.0804	81.1005
3367.1459	81.0834
3367.2111	81.0600
3367.2759	81.0417
3367.3404	81.0298
3367.4047	81.0261
3367.4686	81.0327
3367.5322	81.0455
3367.5954	81.0690
3367.6584	81.0980
3367.7211	81.1378
3367.7835	81.1691
3367.8455	81.2068
3367.9073	81.2430
3367.9688	81.2669
3368.0301	81.2887
3368.0910	81.2992
3368.1517	81.3114
3368.2121	81.3394
3368.2722	81.3606
3368.3320	81.3824
3368.3916	81.3947
3368.4509	81.3986
3368.5100	81.3934
3368.5688	81.3866
3368.6273	81.3791
3368.6857	81.3740
3368.7437	81.3689
3368.8015	81.3614
3368.8591	81.3525
3368.9165	81.3428
3368.9736	81.3297
3369.0305	81.3184
3369.0871	81.3045
3369.1436	81.2898
3369.1998	81.2728
3369.2558	81.2568
3369.3116	81.2434
3369.3671	81.2306
3369.4225	81.2189
3369.4777	81.2104
3369.5326	81.2061
3369.5874	81.2043
3369.6419	81.2057
3369.6963	81.2048
3369.7504	81.2003
3369.8044	81.1904
3369.8582	81.1785
3369.9117	81.1698
3369.9652	81.1656
3370.0184	81.1654
3370.0714	81.1727
3370.1243	81.1834
3370.1770	81.1954
3370.2295	81.2103
3370.2819	81.2284
3370.3341	81.2523
3370.3861	81.2843
3370.4380	81.3238
3370.4897	81.3714
3370.5412	81.4143
3370.5927	81.4685
3370.6439	81.5207
3370.6950	81.5704
3370.7459	81.6173
3370.7968	81.6522
3370.8474	81.6908
3370.8979	81.7227
3370.9483	81.7465
3370.9985	81.7618
3371.0486	81.7720
3371.0986	81.7845
3371.1484	81.7988
3371.1981	81.8136
3371.2477	81.8252
3371.2972	81.8382
3371.3465	81.8489
3371.3957	81.8567
3371.4447	81.8601
3371.4937	81.8563
3371.5425	81.8509
3371.5912	81.8398
3371.6398	81.8229
3371.6883	81.8041
3371.7367	81.7860
3371.7849	81.7693
3371.8331	81.7548
3371.8811	81.7441
3371.9291	81.7377
3371.9769	81.7318
3372.0246	81.7247
3372.0722	81.7164
3372.1198	81.7074
3372.1672	81.7006
3372.2145	81.6973
3372.2617	81.6965
3372.3089	81.6976
3372.3559	81.7014
3372.4029	81.7061
3372.4497	81.7114
3372.4965	81.7170
3372.5432	81.7230
3372.5898	81.7302
3372.6363	81.7400
3372.6827	81.7501
3372.7290	81.7552
3372.7753	81.7576
3372.8215	81.7558
3372.8676	81.7497
3372.9136	81.7401
3372.9595	81.7269
3373.0054	81.7107
3373.0512	81.6924
3373.0970	81.6724
3373.1426	81.6522
3373.1882	81.6356
3373.2337	81.6230
3373.2792	81.6159
3373.3245	81.6177
3373.3699	81.6299
3373.4151	81.6467
3373.4603	81.6652
3373.5054	81.6866
3373.5505	81.7081
3373.5955	81.7294
3373.6405	81.7546
3373.6854	81.7851
3373.7302	81.8191
3373.7750	81.8542
3373.8197	81.8880
3373.8644	81.9193
3373.9090	81.9442
3373.9536	81.9616
3373.9981	81.9726
3374.0426	81.9792
3374.0870	81.9828
3374.1314	81.9835
3374.1758	81.9788
3374.2201	81.9699
3374.2643	81.9586
3374.3086	81.9468
3374.3527	81.9284
3374.3969	81.9100
3374.4410	81.8895
3374.4850	81.8648
3374.5291	81.8359
3374.5731	81.8081
3374.6170	81.7879
3374.6609	81.7762
3374.7048	81.7737
3374.7487	81.7809
3374.7925	81.7971
3374.8363	81.8166
3374.8801	81.8385
3374.9238	81.8628
3374.9676	81.8896
3375.0113	81.9179
3375.0549	81.9416
3375.0986	81.9750
3375.1422	82.0142
3375.1858	82.0596
3375.2294	82.1098
3375.2729	82.1648
3375.3165	82.2225
3375.3600	82.2777
3375.4035	82.3195
3375.4470	82.3684
3375.4905	82.4131
3375.5339	82.4528
3375.5774	82.4886
3375.6208	82.5212
3375.6642	82.5442
3375.7077	82.5669
3375.7511	82.5850
3375.7945	82.5993
3375.8378	82.6136
3375.8812	82.6287
3375.9246	82.6426
3375.9680	82.6560
3376.0113	82.6697
3376.0547	82.6808
3376.0980	82.6897
3376.1414	82.6844
3376.1848	82.6877
3376.2281	82.6973
3376.2715	82.7066
3376.3148	82.7162
3376.3582	82.7258
3376.4015	82.7345
3376.4449	82.7404
3376.4883	82.7430
3376.5316	82.7459
3376.5750	82.7488
3376.6184	82.7535
3376.6618	82.7615
3376.7052	82.7733
3376.7486	82.7887
3376.7920	82.8054
3376.8355	82.8303
3376.8789	82.8574
3376.9224	82.8866
3376.9659	82.9192
3377.0094	82.9470
3377.0529	82.9827
3377.0964	83.0191
3377.1399	83.0550
3377.1835	83.0811
3377.2271	83.1101
3377.2707	83.1339
3377.3143	83.1502
3377.3579	83.1599
3377.4016	83.1671
3377.4453	83.1932
3377.4890	83.2178
3377.5327	83.2451
3377.5765	83.2693
3377.6203	83.2994
3377.6641	83.3260
3377.7079	83.3483
3377.7518	83.3620
3377.7957	83.3737
3377.8396	83.3806
3377.8836	83.3830
3377.9275	83.3846
3377.9716	83.3862
3378.0156	83.3855
3378.0597	83.3819
3378.1039	83.3785
3378.1480	83.3749
3378.1922	83.3715
3378.2365	83.3689
3378.2807	83.3657
3378.3250	83.3631
3378.3694	83.3624
3378.4138	83.3633
3378.4582	83.3639
3378.5027	83.3620
3378.5473	83.3595
3378.5918	83.3566
3378.6364	83.3534
3378.6811	83.3503
3378.7258	83.3485
3378.7706	83.3483
3378.8154	83.3490
3378.8602	83.3502
3378.9051	83.3497
3378.9501	83.3467
3378.9951	83.3442
3379.0402	83.3418
3379.0853	83.3404
3379.1304	83.3403
3379.1757	83.3418
3379.2210	83.3456
3379.2663	83.3487
3379.3117	83.3504
3379.3571	83.3493
3379.4027	83.3454
3379.4482	83.3382
3379.4939	83.3277
3379.5396	83.3163
3379.5853	83.3066
3379.6312	83.2927
3379.6771	83.2792
3379.7230	83.2663
3379.7690	83.2524
3379.8151	83.2367
3379.8613	83.2182
3379.9075	83.1945
3379.9538	83.1701
3380.0002	83.1448
3380.0466	83.1222
3380.0931	83.0886
3380.1397	83.0487
3380.1864	83.0127
3380.2331	82.9873
3380.2799	82.9662
3380.3268	82.9477
3380.3737	82.9326
3380.4208	82.9225
3380.4679	82.9129
3380.5151	82.9069
3380.5623	82.9043
3380.6097	82.9047
3380.6571	82.9095
3380.7047	82.9190
3380.7523	82.9299
3380.7999	82.9477
3380.8477	82.9661
3380.8956	82.9945
3380.9435	83.0287
3380.9916	83.0602
3381.0397	83.1045
3381.0879	83.1434
3381.1362	83.1950
3381.1846	83.2363
3381.2331	83.2867
3381.2817	83.3241
3381.3304	83.3664
3381.3792	83.3966
3381.4281	83.4303
3381.4770	83.4536
3381.5261	83.4763
3381.5753	83.4892
3381.6246	83.4916
3381.6740	83.4844
3381.7235	83.4674
3381.7730	83.4473
3381.8227	83.4345
3381.8726	83.4163
3381.9225	83.3999
3381.9725	83.3750
3382.0226	83.3469
3382.0729	83.3232
3382.1232	83.2935
3382.1737	83.2635
3382.2242	83.2394
3382.2749	83.2088
3382.3257	83.1770
3382.3767	83.1507
3382.4277	83.1149
3382.4789	83.0758
3382.5301	83.0363
3382.5815	83.0075
3382.6330	82.9749
3382.6846	82.9436
3382.7364	82.9113
3382.7882	82.8851
3382.8402	82.8540
3382.8923	82.8258
3382.9445	82.7941
3382.9969	82.7631
3383.0494	82.7179
3383.1020	82.6669
3383.1547	82.6219
3383.2075	82.5620
3383.2605	82.5047
3383.3136	82.4563
3383.3668	82.4248
3383.4201	82.3935
3383.4736	82.3696
3383.5272	82.3538
3383.5810	82.3464
3383.6348	82.3434
3383.6888	82.3458
3383.7429	82.3536
3383.7972	82.3597
3383.8516	82.3648
3383.9061	82.3667
3383.9607	82.3673
3384.0155	82.3665
3384.0704	82.3629
3384.1254	82.3524
3384.1806	82.3349
3384.2359	82.3092
3384.2913	82.2748
3384.3469	82.2311
3384.4025	82.1761
3384.4584	82.1301
3384.5143	82.0894
3384.5704	82.0365
3384.6266	81.9817
3384.6829	81.9257
3384.7394	81.8699
3384.7959	81.8191
3384.8526	81.7751
3384.9095	81.7234
3384.9664	81.6770
3385.0235	81.6353
3385.0807	81.5963
3385.1380	81.5602
3385.1954	81.5271
3385.2529	81.5177
3385.3106	81.5124
3385.3684	81.5083
3385.4263	81.5036
3385.4843	81.4897
3385.5424	81.4659
3385.6007	81.4350
3385.6591	81.3902
3385.7175	81.3487
3385.7761	81.3071
3385.8348	81.2652
3385.8936	81.2164
3385.9525	81.1771
3386.0115	81.1331
3386.0707	81.1021
3386.1299	81.0719
3386.1892	81.0517
3386.2486	81.0314
3386.3082	81.0152
3386.3678	80.9954
3386.4275	80.9810
3386.4874	80.9657
3386.5473	80.9516
3386.6073	80.9411
3386.6674	80.9280
3386.7275	80.9162
3386.7878	80.9096
3386.8481	80.9100
3386.9085	80.9188
3386.9690	80.9330
3387.0296	80.9511
3387.0902	80.9672
3387.1509	80.9870
3387.2117	81.0051
3387.2725	81.0180
3387.3334	81.0339
3387.3944	81.0531
3387.4554	81.0741
3387.5164	81.1120
3387.5775	81.1520
3387.6387	81.1887
3387.6999	81.2356
3387.7611	81.3052
3387.8224	81.3765
3387.8837	81.4749
3387.9451	81.5625
3388.0064	81.6553
3388.0679	81.7517
3388.1293	81.8707
3388.1907	81.9694
3388.2522	82.0663
3388.3137	82.1609
3388.3752	82.2509
3388.4367	82.3364
3388.4982	82.4163
3388.5598	82.4900
3388.6213	82.5574
3388.6828	82.6228
3388.7443	82.6991
3388.8059	82.7596
3388.8674	82.8054
3388.9289	82.8636
3388.9903	82.9222
3389.0518	82.9802
3389.1132	83.0381
3389.1747	83.0928
3389.2361	83.1421
3389.2974	83.1849
3389.3588	83.2190
3389.4201	83.2454
3389.4813	83.2641
3389.5426	83.2757
3389.6038	83.2819
3389.6649	83.2869
3389.7260	83.2948
3389.7871	83.3095
3389.8481	83.3293
3389.9091	83.3525
3389.9700	83.3700
3390.0309	83.3905
3390.0917	83.4100
3390.1524	83.4285
3390.2131	83.4435
3390.2738	83.4615
3390.3343	83.4790
3390.3948	83.4971
3390.4553	83.5098
3390.5157	83.5218
3390.5760	83.5293
3390.6362	83.5321
3390.6964	83.5336
3390.7565	83.5356
3390.8165	83.5365
3390.8764	83.5359
3390.9363	83.5315
3390.9961	83.5268
3391.0558	83.5218
3391.1154	83.5179
3391.1749	83.5155
3391.2344	83.5129
3391.2938	83.5082
3391.3530	83.5013
3391.4123	83.4893
3391.4714	83.4740
3391.5304	83.4555
3391.5893	83.4373
3391.6482	83.4097
3391.7069	83.3773
3391.7656	83.3447
3391.8242	83.3143
3391.8826	83.2909
3391.9410	83.2597
3391.9993	83.2271
3392.0575	83.1948
3392.1156	83.1621
3392.1736	83.1359
3392.2315	83.1043
3392.2893	83.0719
3392.3471	83.0376
3392.4047	83.0011
3392.4622	82.9608
3392.5196	82.9184
3392.5769	82.8759
3392.6341	82.8332
3392.6912	82.7904
3392.7483	82.7484
3392.8052	82.7078
3392.8620	82.6657
3392.9187	82.6132
3392.9753	82.5715
3393.0318	82.5331
3393.0882	82.4987
3393.1445	82.4692
3393.2007	82.4414
3393.2568	82.4151
3393.3128	82.3833
3393.3687	82.3547
3393.4245	82.3239
3393.4801	82.2916
3393.5357	82.2579
3393.5912	82.2171
3393.6466	82.1836
3393.7018	82.1503
3393.7570	82.1181
3393.8121	82.0820
3393.8670	82.0596
3393.9219	82.0463
3393.9767	82.0416
3394.0313	82.0454
3394.0859	82.0570
3394.1403	82.0727
3394.1947	82.0924
3394.2490	82.1217
3394.3031	82.1500
3394.3572	82.1775
3394.4111	82.2032
3394.4650	82.2273
3394.5188	82.2498
3394.5725	82.2708
3394.6260	82.2904
3394.6795	82.3081
3394.7329	82.3242
3394.7862	82.3396
3394.8394	82.3568
3394.8925	82.3756
3394.9455	82.3952
3394.9984	82.4167
3395.0512	82.4430
3395.1039	82.4740
3395.1566	82.5091
3395.2091	82.5467
3395.2616	82.5818
3395.3140	82.6130
3395.3662	82.6401
3395.4184	82.6627
3395.4705	82.6793
3395.5226	82.6888
3395.5745	82.6959
3395.6263	82.6963
3395.6781	82.6897
3395.7298	82.6805
3395.7814	82.6691
3395.8329	82.6571
3395.8843	82.6451
3395.9357	82.6329
3395.9869	82.6219
3396.0381	82.6126
3396.0892	82.6047
3396.1402	82.5987
3396.1912	82.5959
3396.2421	82.5955
3396.2928	82.5981
3396.3436	82.6045
3396.3942	82.6150
3396.4448	82.6290
3396.4952	82.6464
3396.5457	82.6676
3396.5960	82.6879
3396.6463	82.7145
3396.6965	82.7381
3396.7466	82.7583
3396.7966	82.7737
3396.8466	82.7838
3396.8965	82.7920
3396.9463	82.7978
3396.9961	82.8053
3397.0458	82.8138
3397.0954	82.8234
3397.1450	82.8367
3397.1945	82.8509
3397.2439	82.8737
3397.2932	82.9019
3397.3425	82.9291
3397.3918	82.9654
3397.4409	83.0021
3397.4900	83.0384
3397.5390	83.0657
3397.5880	83.0959
3397.6369	83.1257
3397.6858	83.1508
3397.7345	83.1823
3397.7833	83.2131
3397.8319	83.2419
3397.8805	83.2643
3397.9291	83.2758
3397.9776	83.2821
3398.0260	83.2785
3398.0744	83.2652
3398.1227	83.2450
3398.1709	83.2205
3398.2191	83.1909
3398.2673	83.1561
3398.3154	83.1163
3398.3634	83.0746
3398.4114	83.0337
3398.4593	82.9934
3398.5072	82.9536
3398.5550	82.9147
3398.6028	82.8762
3398.6505	82.8382
3398.6981	82.8023
3398.7458	82.7694
3398.7933	82.7388
3398.8408	82.7081
3398.8883	82.6779
3398.9357	82.6490
3398.9831	82.6217
3399.0304	82.5979
3399.0777	82.5826
3399.1250	82.5682
3399.1722	82.5597
3399.2193	82.5583
3399.2664	82.5622
3399.3135	82.5674
3399.3605	82.5740
3399.4074	82.5803
3399.4544	82.5896
3399.5013	82.6002
3399.5481	82.6116
3399.5949	82.6294
3399.6417	82.6497
3399.6884	82.6670
3399.7351	82.6890
3399.7817	82.7057
3399.8284	82.7228
3399.8749	82.7381
3399.9215	82.7515
3399.9680	82.7704
3400.0144	82.7858
3400.0609	82.8044
3400.1072	82.8227
3400.1536	82.8367
3400.1999	82.8529
3400.2462	82.8646
3400.2925	82.8767
3400.3387	82.8843
3400.3849	82.8913
3400.4311	82.8945
3400.4772	82.8940
3400.5233	82.8892
3400.5694	82.8815
3400.6154	82.8673
3400.6614	82.8487
3400.7074	82.8301
3400.7534	82.8017
3400.7993	82.7675
3400.8452	82.7367
3400.8911	82.6940
3400.9369	82.6466
3400.9827	82.6059
3401.0285	82.5526
3401.0743	82.4961
3401.1201	82.4384
3401.1658	82.3854
3401.2115	82.3380
3401.2572	82.2951
3401.3028	82.2568
3401.3485	82.2237
3401.3941	82.1943
3401.4397	82.1670
3401.4853	82.1399
3401.5308	82.1144
3401.5764	82.1047
3401.6219	82.0944
3401.6674	82.0777
3401.7129	82.0606
3401.7584	82.0409
3401.8038	82.0141
3401.8493	81.9873
3401.8947	81.9553
3401.9401	81.9117
3401.9855	81.8732
3402.0309	81.8279
3402.0763	81.7941
3402.1216	81.7662
3402.1670	81.7434
3402.2123	81.7353
3402.2576	81.7380
3402.3030	81.7479
3402.3483	81.7649
3402.3936	81.7965
3402.4388	81.8322
3402.4841	81.8754
3402.5294	81.9251
3402.5747	81.9930
3402.6199	82.0559
3402.6652	82.1226
3402.7104	82.2068
3402.7557	82.2797
3402.8009	82.3533
3402.8462	82.4263
3402.8914	82.4982
3402.9366	82.5831
3402.9818	82.6522
3403.0271	82.7164
3403.0723	82.7755
3403.1175	82.8291
3403.1628	82.8766
3403.2080	82.9172
3403.2532	82.9527
3403.2984	82.9868
3403.3437	83.0201
3403.3889	83.0516
3403.4341	83.0802
3403.4794	83.1061
3403.5246	83.1263
3403.5699	83.1512
3403.6151	83.1767
3403.6604	83.1978
3403.7057	83.2255
3403.7509	83.2495
3403.7962	83.2837
3403.8415	83.3153
3403.8868	83.3322
3403.9321	83.3533
3403.9774	83.3702